45.424277 -0.376203 -41.110040 -24.970887 0.062882 14.109312 -62.316371 69.177030 -25.872609 -40.209227 -5.191741 19.306479 7.126222 -2.956276 41.281187 6.515965 7442 7442 
53.579181 10.975283 -50.659255 -54.559307 5.089893 10.600174 -11.703078 36.677110 -20.332372 32.933699 9.674242 26.271193 17.446424 -4.271712 -29.926743 -31.794731 7443 7443 
10.726782 4.675624 -44.911351 -42.594336 16.439025 25.604661 31.382564 -1.322969 10.997215 49.958095 -10.193612 -4.317825 34.780508 15.779015 -57.585018 -39.418379 7444 7444 
-55.521916 7.639504 12.897023 1.694968 11.670614 25.566891 35.488639 -39.435722 37.675489 49.837274 -61.057287 -49.971073 23.217477 25.446020 -20.580983 -4.566917 7445 7445 
-74.515861 13.800966 41.552830 38.332180 11.361165 5.405775 21.617978 -57.555033 36.963439 90.394911 -84.085092 -109.857351 11.452428 22.423075 16.991730 15.716859 7446 7446 
-54.515981 21.620542 23.886302 67.918906 8.760081 -17.402252 8.561649 -58.829247 20.242237 117.679388 -44.922568 -121.163469 7.056615 6.849019 24.518078 -10.259300 7447 7447 
-42.513946 60.355078 54.810882 122.747429 3.580113 -25.671769 -29.086540 -144.221249 27.431198 31.333807 49.680903 -60.381892 -30.098087 -36.858339 28.338647 -9.446236 7448 7448 
-54.553434 72.312982 68.741596 101.229945 45.681282 25.483706 -63.568534 -195.327543 27.322971 -119.412256 62.041672 2.643843 -42.711658 -31.157357 45.616511 55.656273 7449 7449 
-82.921267 43.660026 69.205542 113.151574 54.417358 40.199850 -121.051772 -116.661310 -27.050178 -196.951320 31.179156 85.244119 -26.878222 6.694120 36.142766 91.619559 7450 7450 
-39.400908 23.979197 50.965223 59.593744 0.951504 3.958115 -95.537638 -4.509236 -51.516072 -131.027405 57.646906 85.487701 -22.343245 4.776034 6.361327 50.614752 7451 7451 
56.236792 -10.979858 -21.064064 -74.072280 -43.732431 -5.865029 -13.615679 113.092550 -38.028168 -34.455495 47.586172 24.889843 -13.673266 6.076505 9.875983 -2.271575 7452 7452 
57.411631 -65.381840 -65.341228 -85.688676 -41.288028 8.782683 25.466881 166.038577 -47.408109 22.198330 -7.885107 2.122299 -2.312909 23.429346 28.017460 -18.161309 7453 7453 
43.032735 -57.497477 -81.442070 -84.986547 -44.311239 6.486219 39.696300 179.022080 -42.498997 72.920530 -11.662191 17.555105 -18.291890 6.980037 17.732657 -42.735251 7454 7454 
84.437679 -7.929007 -57.282316 -84.762495 -85.663677 -37.865653 -10.826328 199.891797 16.761506 30.188610 35.710185 60.280834 -37.271383 -20.860522 -10.467479 -74.341752 7455 7455 
77.237910 2.757975 -34.762672 -90.730946 -87.623746 -60.176018 -25.286419 218.583916 74.229921 -70.401525 43.743573 64.789655 -30.228150 -23.285724 -21.756499 -37.091251 7456 7456 
22.801614 -7.004412 -43.625377 -96.327268 -49.871519 -50.986750 22.051581 202.962130 73.034416 -76.688672 -11.229471 32.851947 -14.733000 -14.827990 -21.293153 32.885922 7457 7457 
-15.235406 -4.351003 -40.557188 -86.002668 -3.308093 -28.523748 61.940571 116.037534 58.060571 -25.532190 -57.965180 -28.142818 22.046900 13.664189 -23.460486 41.329013 7458 7458 
-29.727624 11.615378 -18.516265 -33.518166 13.878520 -27.690910 64.164004 19.795062 50.586581 29.783390 -22.840322 -57.984314 34.499704 14.793913 -43.132669 -5.706284 7459 7459 
-18.612640 21.595325 -1.181736 39.088712 18.312344 -37.506077 50.108048 -71.803976 63.601547 82.672813 13.111182 -18.123413 0.933831 -29.214223 -70.086571 -42.895166 7460 7460 
-27.561909 19.265775 11.439903 110.127810 12.224228 -39.069651 25.452587 -111.878741 52.709324 105.017665 -2.618420 -28.119531 -7.405921 -38.447921 -63.385290 -17.749906 7461 7461 
-51.000027 4.677836 18.119334 172.622166 -11.354130 -22.702125 -21.664997 -88.698058 -19.082946 73.437951 -13.041604 -72.207103 19.108392 -0.051593 -10.037402 21.874305 7462 7462 
-69.744908 -8.920774 23.860560 118.412362 3.988711 37.456392 -32.108508 -72.943834 -50.168628 -16.694853 -24.007934 -62.530289 39.099908 31.879528 47.995615 34.426654 7463 7463 
-65.225460 -1.810146 50.044327 34.844561 27.748835 65.218590 -46.524116 -64.296590 -44.031934 -60.297090 -27.348028 -45.495903 42.516891 34.098142 68.675416 31.882506 7464 7464 
-35.186491 2.017238 38.290843 17.747904 49.996932 53.412291 -60.258876 -66.019842 -46.383696 -37.542685 -17.769639 -23.182034 42.742411 25.504219 60.770626 -4.139201 7465 7465 
-29.175766 -9.821562 16.821094 5.829873 68.105810 43.249210 -44.350545 -50.658115 -46.289475 -22.337328 -13.236013 38.859204 39.650876 14.116229 40.890259 -51.653752 7466 7466 
-19.081278 -17.905620 -0.463670 -48.954409 69.610591 46.677803 -2.482623 -27.400795 -38.872104 -6.436805 -26.702823 36.050111 41.420578 23.359200 27.325828 -56.143985 7467 7467 
3.201015 -8.197252 4.745407 -23.018410 29.403927 19.113271 9.184989 -34.432946 -25.105902 -11.201450 7.576461 38.411284 20.879074 14.223822 -3.482928 -41.300361 7468 7468 
36.746685 12.459236 41.867871 12.183180 -34.687288 -28.663030 -10.066573 -29.840083 -13.605400 -4.462933 59.836596 40.141449 -16.402845 -13.878720 -33.455814 -18.172334 7469 7469 
55.312072 19.382055 58.905444 -6.453408 -69.862532 -38.272799 -5.709883 -13.300949 3.116582 23.196155 53.458123 -41.882579 -34.728485 -9.886775 -19.215410 25.942388 7470 7470 
38.675942 25.615196 48.774610 19.141612 -71.251674 -25.829210 -19.190372 -15.936105 9.151516 -1.012055 60.784491 -37.335697 -48.490843 -2.020014 3.279711 15.642891 7471 7471 
47.555952 37.871056 33.641421 24.735904 -52.131408 -13.897764 -31.338571 -46.436591 18.645466 -7.538624 57.199572 19.966843 -36.904653 12.413460 3.902850 -67.684912 7472 7472 
55.212812 36.756742 39.233219 15.049009 -19.083551 -3.146116 -28.610791 -95.411324 19.030938 34.940991 -1.303264 53.328881 6.813481 30.096311 -6.483546 -136.423793 7473 7473 
31.182846 28.750880 8.118468 6.802520 28.168765 27.346201 -11.165877 -119.203803 14.802674 24.709850 -35.814572 37.072712 38.225965 34.362145 -5.452468 -107.906305 7474 7474 
11.808563 26.807871 -16.236974 -0.978920 38.518686 38.756137 12.485388 -111.160752 15.228253 8.399236 -24.477504 18.663283 17.875590 6.209132 -17.403892 -24.494099 7475 7475 
12.354165 10.725670 -7.536681 0.344112 8.175675 14.467429 33.475242 -72.005613 16.594881 60.888844 -30.314916 59.931863 -47.760563 -60.362809 -57.723795 58.746495 7476 7476 
6.665908 -51.467790 -45.336049 -58.585246 28.401209 27.225341 85.935508 7.161119 14.828102 118.886870 -126.914478 -11.847411 -42.991279 -56.714097 -43.912806 148.665100 7477 7477 
-32.390374 -84.032677 -87.327168 -89.036886 67.155812 50.894827 113.327433 61.409033 -18.532258 99.370966 -164.856058 -111.541787 11.505917 6.420629 9.783893 167.848698 7478 7478 
-44.371026 -64.575351 -81.426662 -24.440788 35.650574 13.095883 84.216234 81.851135 -21.783245 52.834254 -79.777832 -116.535682 10.273481 14.834313 9.939913 130.214796 7479 7479 
-5.362128 -41.991114 -41.556849 7.014249 -5.756743 -39.506254 50.346578 76.812260 27.725690 33.677461 -33.643168 -80.111126 -9.412593 -12.870498 -26.070170 100.704403 7480 7480 
17.963117 -19.389360 -14.942456 14.732306 -27.044030 -63.147028 50.014971 41.812480 33.017681 -9.411350 5.466236 58.353918 -24.362975 -40.794907 -48.396535 26.127932 7481 7481 
3.121940 13.452462 22.937418 20.988781 -36.733001 -69.265333 35.686991 9.810741 11.684192 -58.564002 24.705461 120.262225 -19.677312 -42.472086 -22.724279 -13.214198 7482 7482 
2.595969 66.172554 71.287600 -15.172909 -25.648078 -58.617332 -40.062473 -0.555331 41.524210 -78.822611 50.419357 17.153161 -17.623938 -33.557876 15.966010 4.941688 7483 7483 
22.167999 50.459448 19.606869 -91.373411 22.818802 -6.023237 -40.430195 22.773726 51.186252 -60.725195 55.646027 -69.857920 -2.505105 -18.122596 47.399272 -3.020735 7484 7484 
-22.602902 -24.455130 -21.392550 -57.541260 60.476407 38.280882 11.261604 15.972949 34.564656 -35.104110 21.177894 -77.196152 31.947096 5.322382 39.002232 -19.713997 7485 7485 
-118.426338 -38.270781 28.469654 63.474657 53.812669 51.781630 -33.047224 -7.794268 23.469020 -41.672462 37.705650 -27.597040 26.497201 14.425849 9.824085 -42.652302 7486 7486 
-158.412919 -2.161249 44.104760 92.513545 54.324908 65.573623 -95.652107 -0.290560 8.064644 -85.265272 39.051830 37.183716 20.085919 29.358191 10.990222 -59.469249 7487 7487 
-124.628154 17.990670 31.412644 75.187780 33.989669 37.179989 -76.974324 5.841725 21.843399 -133.539078 39.577267 52.779337 30.490439 36.011399 -1.302366 -45.860396 7488 7488 
-56.457674 20.660781 32.696418 66.628576 -10.829163 -11.996852 -34.207244 -6.494842 -39.452245 -90.908810 38.286701 16.154226 30.230814 33.562114 31.145721 -19.018520 7489 7489 
18.415359 13.148162 16.569232 27.668115 -37.361740 -25.979022 -17.931204 5.471098 -143.375439 14.596806 5.976204 12.450255 10.543887 24.081132 73.814883 1.912272 7490 7490 
74.421029 8.072065 -35.608740 -63.913176 -34.324094 1.717930 1.681251 47.953735 -77.438204 31.965031 -29.170429 -3.093294 -25.034268 8.503793 72.337871 21.929500 7491 7491 
147.745888 9.382293 -73.729398 -101.834729 -41.550024 20.193483 -7.197567 46.990055 -67.070725 18.502338 -17.105384 13.262136 -23.595427 21.652470 43.488727 10.865865 7492 7492 
194.461443 -9.728126 -77.137551 -92.097990 -45.556247 14.833214 -13.269148 28.494406 -76.146801 27.291501 -8.743561 60.996166 -5.481986 33.914011 -34.352780 2.523450 7493 7493 
172.345669 -19.001872 -64.088941 -87.582250 -20.436341 8.538330 0.743763 9.481643 44.250368 -7.476246 -8.980308 9.034691 -22.300519 16.720649 -58.425741 27.177108 7494 7494 
105.060005 15.305198 -22.363604 -108.255761 1.176259 5.391952 21.132836 -17.446886 52.860588 -10.752016 38.730026 -23.617373 -37.764485 -4.861544 -33.486695 18.891499 7495 7495 
15.223739 30.997738 2.311568 -158.427826 29.029787 34.337275 75.047498 -28.519778 45.733656 3.442191 37.336356 -1.879592 -43.801383 -16.588726 -7.149034 -17.093468 7496 7496 
-33.229276 -4.105730 0.741062 -78.285180 45.287684 48.116376 85.434463 -63.959399 -7.764102 -0.559098 31.595830 24.660526 -19.035802 -2.815675 35.789381 -61.871058 7497 7497 
-57.303156 -15.925522 11.159788 98.328466 16.534908 12.002989 15.215588 -80.013062 -81.642527 -4.185652 63.437009 28.381235 15.943802 12.310498 41.413763 -75.658129 7498 7498 
-76.565576 0.137923 32.935867 222.498840 -35.636489 -38.447334 -84.055114 -20.868117 -96.951530 30.780291 77.873101 -75.723589 27.689874 17.811322 45.075026 -26.554496 7499 7499 
-48.124295 7.800215 58.243111 252.368877 -76.498509 -79.770713 -133.354662 19.335977 -45.343591 94.185991 61.686695 -66.654916 -2.121940 -16.594404 0.968092 -26.125926 7500 7500 
17.858428 -4.260573 64.603998 155.444749 -72.500846 -79.340586 -91.209809 9.404638 19.754067 149.016697 -2.019628 0.482743 -22.019695 -40.939468 -60.142712 -44.132004 7501 7501 
16.919151 -35.442452 40.956463 52.310233 -21.739269 -47.161726 -20.896344 15.053945 -15.850185 194.642504 -45.272150 -26.258840 13.615702 -18.068930 -57.494980 -45.313121 7502 7502 
0.872186 -41.279288 6.058519 6.303275 12.448408 -30.376002 18.792267 27.180635 22.649817 144.903224 -41.363264 3.103160 21.048375 -28.415403 -56.375212 -65.550696 7503 7503 
-3.214956 -14.467467 6.739641 5.341032 -2.615789 -39.342928 24.752175 22.808292 54.779806 40.517961 -15.718819 33.538552 10.413550 -36.451179 -44.326756 -42.753115 7504 7504 
-5.344013 17.229549 11.970726 -16.479982 -25.914274 -42.581530 15.488565 45.630959 46.826823 -69.450566 20.801823 97.320082 -5.467362 -34.503826 -41.313202 -14.213772 7505 7505 
13.841322 29.305467 -37.947523 -100.671278 -19.190402 -21.284129 44.611335 91.335209 37.240837 -113.340726 -11.669392 85.492526 9.705618 -6.367791 -27.839745 26.778674 7506 7506 
6.535584 2.081573 -71.098512 -132.126054 -12.397871 -8.575999 98.819362 116.761917 28.926453 -79.569396 -80.488050 -28.324161 35.890562 29.666988 9.350909 84.546696 7507 7507 
10.769350 -34.155735 -73.534855 -112.934081 -9.873406 0.234981 115.107321 104.386425 38.454984 -24.922516 -115.903297 -97.240666 25.229142 35.027128 44.002600 95.352624 7508 7508 
-9.810433 -34.922401 -56.125875 -59.317271 27.038872 36.436756 79.944283 16.756069 37.023257 18.286439 -115.016732 -144.108600 22.268773 39.775946 52.044405 89.726512 7509 7509 
-48.786357 13.990613 -28.100848 -7.476149 75.522102 68.133601 8.460046 -81.743008 49.028328 -46.739138 -41.542853 -86.523322 15.006197 25.994091 23.818304 60.958392 7510 7510 
-57.015594 77.122236 -2.101632 17.487890 64.808435 50.119212 -37.527359 -112.893187 61.947624 -116.776425 40.952342 -7.143762 -11.561502 -8.472677 0.398333 40.656068 7511 7511 
-64.971278 75.014617 34.995776 38.310888 29.368311 33.927295 -11.515657 -135.129952 76.963181 -105.711142 78.997168 -6.676040 -40.292459 -39.048666 -20.383690 56.151647 7512 7512 
-79.782146 13.197037 29.474523 50.895352 46.034754 75.577823 3.862848 -139.260190 14.439609 -88.143632 1.305192 82.423533 -30.288592 -18.752265 3.210338 35.805817 7513 7513 
-80.854625 -8.691672 47.392474 70.770812 9.255155 53.630903 -37.440067 -54.062980 -48.421995 -45.893556 -38.446958 138.620132 -37.625964 -9.492558 25.515546 15.745351 7514 7514 
-42.904690 -2.514573 66.741395 61.026686 -57.706986 -20.908605 -48.075416 44.342189 -59.933700 62.964609 33.764172 65.224977 -60.448462 -32.855888 6.181303 -14.897011 7515 7515 
4.605137 -36.304427 19.730547 32.608348 -33.099886 -25.154969 -51.828856 89.444106 -81.487991 78.736457 22.442643 32.860669 -6.948968 3.768634 5.662885 -55.034329 7516 7516 
36.329750 -60.713783 -17.225236 11.468933 -5.865614 -19.975180 -72.855188 128.836317 -79.451107 19.533382 24.809148 10.804332 31.385043 31.565301 6.709487 -45.355586 7517 7517 
64.302319 -45.267506 -25.244119 -45.837366 -7.878823 -15.145271 -38.872943 113.943709 -43.540718 52.926928 -5.222945 -39.175503 16.512379 15.696463 6.265249 -3.461852 7518 7518 
69.991825 11.970043 -8.850975 -124.101395 -5.657671 -1.099087 0.333028 57.414231 39.436104 47.618470 -39.439766 -57.827021 4.106301 1.083683 -10.972442 15.994670 7519 7519 
54.264036 46.524527 1.897020 -172.685556 -8.389256 2.042602 8.356821 67.989806 97.931856 -28.341863 -25.764046 -26.830602 -4.003695 -9.172437 -37.658729 33.839517 7520 7520 
9.826898 24.591519 -0.216548 -137.889470 -5.720393 9.430298 34.827095 65.150600 83.353357 -66.021846 -20.079138 -3.782872 2.735770 1.703059 -40.707702 42.799373 7521 7521 
-40.651829 7.509891 -15.706286 -33.740608 7.880745 13.123812 49.074247 12.510027 29.018848 -87.152566 37.796090 66.042817 11.311065 5.970855 -41.998520 -20.988590 7522 7522 
-84.884087 -15.772796 -39.285915 58.446320 30.707373 14.840146 52.272768 -16.323809 -1.622281 -78.657340 26.989403 50.657930 27.302814 14.571490 -5.278001 -33.964016 7523 7523 
-88.682336 -22.352045 -36.194423 102.437255 37.753659 4.038909 53.560423 -50.561443 -8.414305 -21.811890 19.689906 -41.722742 31.305465 13.599226 43.457284 -36.102945 7524 7524 
3.655481 -8.752688 -29.345293 42.665888 23.249992 -17.676891 28.110538 -41.907027 -5.370749 9.595906 62.911566 -8.618736 3.144893 -25.735725 39.323191 -75.250346 7525 7525 
43.905896 -21.006457 14.468622 -30.392374 26.124884 -12.575088 10.113300 -30.638784 -7.245194 -14.992240 54.117952 25.081911 8.821583 -23.077887 17.644071 -60.350196 7526 7526 
5.803767 -38.714612 66.977814 -10.490010 42.854806 15.563201 -16.161554 -65.833412 -139.668377 -28.001561 81.428467 43.059341 58.796081 32.705835 -5.329698 -42.990087 7527 7527 
39.609752 -39.753342 46.952913 39.262308 2.441697 -4.069464 -60.811025 -23.632839 -176.868333 12.668228 68.991744 47.774359 57.132318 47.256455 -38.340926 -18.613845 7528 7528 
86.024369 -41.747360 0.935118 121.032700 -59.577824 -60.251991 -67.233141 20.818128 -40.131675 79.399875 -13.826107 15.093710 11.950645 3.522977 -56.279868 0.270443 7529 7529 
98.012122 -21.141053 -35.818981 159.109370 -89.037261 -86.789159 -40.085642 15.750605 28.547092 103.838607 -41.989764 -8.984437 -11.813793 -20.537244 -44.920246 -4.140214 7530 7530 
115.262204 20.685301 -67.433493 61.633695 -76.306037 -57.065720 -20.406180 23.630231 39.686520 61.298511 -90.366995 -30.812427 -15.554376 1.845877 1.404563 32.498326 7531 7531 
82.451117 36.184542 -57.809507 -45.861079 -22.564331 -12.793919 0.202910 20.190267 45.374428 23.151119 -123.327052 -54.061762 -19.740012 9.684390 49.134219 69.784669 7532 7532 
12.786689 36.075437 -7.026533 -43.299986 0.359363 -7.274476 9.890876 -1.511370 67.909657 -4.571925 -55.234535 -59.485840 -47.307499 -20.257979 47.742605 71.205516 7533 7533 
-34.966871 28.211921 15.593952 6.199482 15.189464 2.982679 13.258017 -46.468644 42.965566 3.614298 11.556101 -73.936515 -41.282241 -26.016769 37.591476 45.508085 7534 7534 
-68.156770 16.068623 30.002236 81.398173 11.626093 8.469844 17.824191 -97.232390 27.114072 36.534914 42.626270 -81.308524 -28.580912 -28.249184 24.736076 7.127287 7535 7535 
-86.382545 -7.994170 68.235048 127.529554 2.346051 20.402300 -0.975005 -123.161232 24.052709 38.085633 1.422878 -43.769132 -12.242709 -11.110987 21.358311 -17.796702 7536 7536 
-81.918700 -7.981069 125.656110 106.536957 2.195352 31.929242 -46.958901 -129.458991 -1.555801 7.189360 -22.928188 32.509133 8.818968 17.885582 13.846136 -55.765189 7537 7537 
-60.011377 31.051539 121.969669 45.518120 -10.593690 18.527082 -43.946169 -102.515174 0.931108 -16.725885 32.563334 106.617794 -13.969177 -7.660027 -21.682455 -80.074692 7538 7538 
-47.549904 36.635980 51.539466 -25.156958 1.988002 25.840200 16.580757 -59.877543 0.966669 -4.544358 19.235562 87.433463 -2.882981 -8.799164 -18.081439 -73.327751 7539 7539 
-46.012227 58.836894 12.464445 -41.331043 -0.635991 23.937548 20.170514 -27.430140 4.235203 -23.049579 20.960506 44.751882 4.628968 0.494699 1.519531 -53.541209 7540 7540 
-23.333540 77.022314 -12.909783 -74.410605 3.555292 24.242982 7.005680 -1.172340 2.632441 -34.005771 24.510122 -14.290330 2.234247 12.597928 10.198175 -3.876811 7541 7541 
13.151935 49.411056 -17.641051 -121.964012 18.093285 33.424148 5.211944 20.312694 -3.732696 -36.338621 -11.419354 -49.238430 12.317334 33.827620 8.968170 45.615978 7542 7542 
42.355838 18.263311 -34.057416 -137.840205 17.100337 25.154869 25.256398 43.766868 -41.648245 -1.857138 -25.454822 -15.797518 2.362212 32.539956 -9.207874 59.063429 7543 7543 
59.331128 -37.295291 -38.362244 -111.129501 14.996572 14.788736 50.812759 46.857841 -57.702197 49.749834 -41.994921 23.309605 -10.131596 21.515645 -29.129053 44.382683 7544 7544 
52.159286 -57.000789 -23.343930 -80.977157 19.992326 17.290894 37.506477 34.372892 -38.246343 35.599728 -53.961060 54.280372 -12.307089 8.040360 -23.371579 29.965611 7545 7545 
14.596698 -25.581263 -13.225508 -55.658593 22.531793 10.921941 27.810566 18.604366 12.208431 37.410207 -59.265114 -24.220510 -2.880037 1.307549 4.828213 30.611262 7546 7546 
-18.141698 -15.474711 8.775541 8.619921 11.051798 -10.594913 13.167023 2.597039 53.113428 37.469829 -24.211634 -81.515069 -2.742637 -17.488784 22.872479 12.502387 7547 7547 
-41.406873 -28.527971 -7.435539 49.397164 20.717015 -0.207322 1.817804 5.645723 15.872447 -16.454027 18.363847 -46.878482 18.830467 -3.063966 26.358749 -13.029036 7548 7548 
-47.825609 -37.339024 -40.503420 32.475380 38.142138 19.493565 13.146921 22.410049 8.494678 -89.398648 53.039813 -2.600937 37.427985 15.892927 -2.708742 -20.147075 7549 7549 
-17.160087 -48.102318 -62.526375 10.798794 44.902440 12.539486 35.970175 23.577885 25.287316 -79.893619 58.537010 36.306191 27.620475 -3.129669 -37.777751 -26.949954 7550 7550 
10.072059 -57.691119 -55.230654 -0.161697 55.640183 10.287149 14.006350 23.077730 -12.634845 -23.071789 28.761034 47.754041 29.825019 -8.492659 -36.542432 -25.598369 7551 7551 
11.671576 -41.372119 -35.288190 -7.118000 44.596445 4.341935 -39.306431 62.474784 -29.099144 -23.173618 0.098112 49.664755 23.336672 -6.273456 -14.665172 0.111850 7552 7552 
4.251759 -2.392277 -18.468860 3.619477 9.675374 -17.569901 -49.301383 70.185811 -23.064453 -1.068773 8.767804 26.245449 5.786140 -11.838768 5.759065 -10.586463 7553 7553 
-7.462448 24.504011 7.617603 -4.458374 0.243108 -11.593211 -22.397413 13.546724 -30.848459 49.815099 19.636045 3.434632 4.215493 -8.796348 18.099499 -55.555963 7554 7554 
14.077579 24.447263 20.672887 -79.767637 9.743082 10.407634 -4.643043 5.062236 -18.990072 64.243468 -6.905456 -27.963155 6.127078 2.081731 21.866108 -40.459703 7555 7555 
43.983718 40.888129 20.946289 -117.260257 -11.496182 -2.989909 -5.543306 31.471518 1.490398 32.014906 12.835629 -28.365609 -9.755620 -13.225582 1.571302 3.434576 7556 7556 
25.642744 56.338019 23.238342 2.262078 -67.806758 -45.464674 -20.394452 26.184702 38.473839 -13.111763 27.374206 17.654538 -47.569912 -50.106835 -23.702104 50.988032 7557 7557 
7.351017 19.416091 31.348891 126.738060 -93.234605 -61.378540 -32.745230 2.504316 61.959300 16.764352 2.236540 -39.877197 -54.696732 -48.443989 -17.726905 79.784631 7558 7558 
6.351261 -29.943953 19.615635 132.535968 -66.852275 -39.111249 -8.887205 -13.708181 54.670354 61.502249 -14.703615 -99.216527 -33.987907 -21.031973 -6.920112 59.687532 7559 7559 
18.621008 -30.336107 -11.508871 74.852598 -24.907683 -9.078699 10.720422 -28.362668 10.615819 20.487112 1.372079 0.314805 -27.825650 -14.734518 -4.197378 13.967731 7560 7560 
35.302157 10.955072 -11.067973 28.034362 11.379091 13.235563 12.549154 -100.387425 -8.027222 -18.484186 17.745395 45.613574 -9.336068 -3.996732 -3.758524 -19.756237 7561 7561 
46.927871 26.208586 -0.496511 -25.262695 2.336079 13.542331 24.649406 -87.905065 7.888553 -7.975963 9.286743 13.570959 -3.589445 10.245667 -17.221227 -12.205287 7562 7562 
23.898654 14.133708 -6.294941 -38.508280 -27.096107 -4.274137 31.385339 6.755766 -11.097740 -0.368292 35.399776 36.444601 -13.368985 11.931892 -44.242764 -14.698490 7563 7563 
-20.342140 13.061088 6.089207 -0.704270 -43.217797 -22.194607 21.792037 45.516482 -9.921524 3.148693 36.173584 38.141682 -14.214775 15.190586 -61.626371 -6.891875 7564 7564 
-7.656663 28.063849 -3.505828 -0.778562 -47.272382 -30.439551 2.401325 59.187812 8.750373 19.177897 1.737752 2.859657 -13.280195 14.048387 -61.210226 27.916357 7565 7565 
51.049592 37.279974 -50.002123 2.160185 -56.212919 -43.636036 9.195956 50.165372 5.558833 36.116216 5.850371 -23.242011 -27.930784 -8.422048 -39.349279 51.418702 7566 7566 
67.291934 18.928609 -59.714167 -5.898357 -67.796273 -53.840150 34.592006 66.436398 -17.745290 36.063602 -1.971114 -36.806641 -28.566035 -16.608627 28.422703 37.211401 7567 7567 
23.967566 7.412047 -27.808164 -16.373673 -28.412165 -27.265351 -3.517627 71.997368 -69.591625 -18.383677 -37.860945 -48.624143 23.796113 26.908292 107.875309 15.880675 7568 7568 
-24.050204 -9.814415 -4.184122 -36.218936 18.348056 21.320940 -35.506666 70.105346 -63.685910 -95.275668 -25.878294 -37.522337 42.203153 54.625369 121.364078 4.169608 7569 7569 
-68.324615 -41.684319 16.829716 -39.386726 51.885666 58.779363 -13.839591 35.740505 33.946437 -99.778069 -22.270801 -24.909188 26.864061 43.864748 69.632902 -27.350089 7570 7570 
-71.012518 -56.385568 49.283998 13.638295 65.027320 46.524977 -40.645689 -6.430815 34.873870 -35.560290 -27.793892 -6.453963 23.887658 23.468191 26.070884 -38.492459 7571 7571 
-54.753887 -54.825979 46.712096 25.051246 42.559580 18.211381 -72.143533 49.189096 31.725305 13.180626 -52.933929 -4.304747 6.092928 -1.603732 36.561944 -28.718396 7572 7572 
-35.872445 -21.477353 30.967705 -28.311539 39.454014 21.706914 -62.373459 55.906163 60.790259 1.612622 -89.779338 -15.554151 -2.462877 -24.743904 78.306654 -8.169266 7573 7573 
-71.043729 -25.947169 22.900710 -60.797982 74.266190 63.862760 11.089918 -14.330699 1.196207 -39.869710 -92.136436 -0.433431 36.549843 -10.221563 109.113018 -4.197929 7574 7574 
-116.914066 -65.166153 -12.235564 -11.785855 95.566534 95.933806 55.318069 -40.716772 -36.383856 -72.630279 -87.668922 -6.075765 80.955053 32.946086 97.938927 -9.081244 7575 7575 
-58.906984 -46.276658 -38.715529 97.429093 58.079067 39.239563 -2.648373 -48.200178 -51.521670 -47.153243 45.105164 -11.619552 71.925112 18.102994 6.993504 -31.832310 7576 7576 
-32.323818 -3.438471 -42.542191 150.990268 12.987488 -25.302218 -7.214701 -53.156356 -36.040024 -2.336171 134.799900 58.251938 38.415916 -17.491979 -102.082877 -73.516703 7577 7577 
-21.939642 24.428136 -23.991082 102.659785 -16.775527 -47.696381 19.782429 -36.467718 -22.473117 32.769057 103.386848 112.783841 2.820009 -32.493026 -146.114983 -50.678629 7578 7578 
39.665096 37.946549 -28.933343 11.527254 -26.381847 -44.760931 26.678206 -15.740984 -6.789810 47.144238 47.677981 74.933392 -18.336732 -20.547520 -106.166090 -17.915459 7579 7579 
87.401029 44.883767 -27.129543 -19.375461 -30.593407 -45.851816 -8.376271 -0.958299 20.322309 10.329283 -17.211372 -0.509397 -13.885368 9.471087 -12.519668 4.003126 7580 7580 
90.210052 28.636670 9.333997 10.565217 -41.259846 -53.728907 -68.694214 24.937031 -12.761740 -31.246851 -18.608775 -68.311043 -13.940732 17.416801 73.505193 53.947147 7581 7581 
60.838773 19.623842 5.904768 8.905143 -31.072924 -24.032492 -83.848961 43.681852 -37.146616 -87.294223 24.562241 24.567888 -50.461104 -6.629246 80.500771 51.900288 7582 7582 
40.160686 24.522217 3.187356 -22.292472 -10.916131 16.449539 -63.285910 12.174716 0.902964 -96.498851 40.724209 87.679483 -77.240637 -29.159962 34.716054 38.876740 7583 7583 
37.395438 30.349302 15.744710 -97.059549 11.320163 56.049608 -40.318412 -13.481260 49.557078 -47.380155 -38.798387 -3.035558 -54.861600 6.170587 25.488193 62.859842 7584 7584 
-31.723525 37.135420 53.233473 -35.969558 13.533249 67.042655 -41.091999 -62.159714 63.953927 -4.562381 -44.351231 -68.993590 -37.103777 32.419354 13.589621 45.048077 7585 7585 
-94.786759 -5.165372 58.299069 47.589483 1.017655 61.611149 18.138592 -86.703817 52.289489 51.592872 -20.101394 -68.417117 -32.281813 27.656249 -10.603706 -0.134580 7586 7586 
-60.898135 -20.249446 23.629908 8.111604 -8.233151 46.152039 62.473088 -50.985906 77.529455 73.204228 -20.656763 -31.811008 -45.371185 0.071891 -41.435268 -11.531350 7587 7587 
-26.956330 10.380934 0.533349 -23.951885 -8.295396 20.975636 64.137845 -36.824152 -0.395655 67.686017 33.098172 27.410040 -38.605088 -22.016064 -53.197632 -13.979790 7588 7588 
43.429725 5.219240 -34.953239 -79.192834 -10.275585 3.933970 89.998304 -18.159580 -218.506001 105.520269 37.679134 97.183078 29.253753 19.866361 -25.728447 -45.268146 7589 7589 
106.379160 -27.243988 -47.882157 -108.905850 -18.130846 -15.478563 97.921049 13.341194 -150.822881 89.431917 -40.432048 27.350650 50.142619 26.746331 -17.889151 15.472564 7590 7590 
116.044537 -37.571005 -5.585352 -52.404432 -33.774794 -54.733928 69.374345 -1.349371 35.379826 53.569155 -87.339363 -48.920001 28.057795 -14.835800 -47.500670 81.589057 7591 7591 
65.486288 7.701126 81.852696 42.649482 -50.310242 -104.603395 19.533145 -62.309100 32.230201 69.186723 -12.980934 -39.087867 38.242404 -38.158774 -80.849876 31.418122 7592 7592 
-0.031579 53.227696 72.460833 46.854762 -41.244987 -100.728709 22.812090 -53.350107 17.632207 43.292946 72.133719 -60.485259 49.374982 -33.935102 -82.221556 -5.791937 7593 7593 
39.858137 24.301113 1.030423 5.404183 -22.081299 -71.003362 28.222204 -5.731400 17.664711 33.666769 72.259986 -60.186898 55.155673 -11.373522 -68.087107 -39.099612 7594 7594 
61.330902 -41.710035 -23.082810 -9.811183 16.554594 -29.249959 22.968129 3.000362 34.828082 21.071871 7.859255 -27.931739 57.900689 4.548175 -45.303854 -52.972479 7595 7595 
19.121660 -26.598138 -9.211484 12.966436 24.960238 -3.004625 14.000125 -32.234212 34.814045 -38.603544 25.592637 41.284159 36.375647 -5.018833 -36.571666 -57.872446 7596 7596 
-16.801816 34.348694 15.636446 -10.302937 20.863228 23.624594 -22.253111 -45.115099 39.549277 -115.140724 66.954838 76.757172 14.186405 -11.757951 -14.580334 -55.968684 7597 7597 
-34.343054 35.199243 10.505563 -53.061951 46.254800 58.499851 -52.220496 -10.833956 33.979632 -161.567246 36.762465 63.555448 26.778098 16.820429 30.001500 -46.330326 7598 7598 
-74.575306 6.310438 29.205511 -36.603301 52.471865 57.620878 -25.386801 -9.043284 0.168113 -99.368953 15.924187 76.592793 21.342464 22.552853 29.041236 -66.252693 7599 7599 
-140.386562 -19.054212 37.174466 -22.137811 50.413903 60.471311 35.857469 -2.338563 9.632581 16.368260 -9.124311 11.811140 -15.066165 7.958721 27.281944 -48.862169 7600 7600 
-151.744369 -38.506741 0.413778 39.048596 44.912044 55.849749 30.855838 19.171106 36.955138 50.602532 -36.507263 -5.447555 -53.180841 -5.812471 29.398856 -16.008396 7601 7601 
-83.163172 -42.235078 -31.714406 64.166948 43.641964 42.821309 -0.403807 6.886241 64.117495 17.211792 -66.308087 -11.333725 -53.644624 -3.305763 45.423057 7.839854 7602 7602 
32.217797 -3.142083 -4.131910 -22.340516 25.138784 17.163064 -37.604499 -7.300637 37.945822 27.769208 -49.415831 -51.630596 -28.461199 17.521883 66.166445 -19.895733 7603 7603 
129.130431 48.764409 16.877554 -136.187530 -9.260772 -8.148223 -50.192454 9.016584 -78.609106 70.251120 -1.730587 5.523088 -14.951691 33.109170 44.040796 -57.632790 7604 7604 
148.329544 36.336817 -5.226772 -56.147120 -59.212198 -44.229565 -48.627716 28.777011 -131.895951 82.364709 20.698018 64.946360 -21.318380 15.568614 1.263213 -31.626584 7605 7605 
112.494429 9.022855 -20.885801 112.009347 -103.512565 -89.650519 -70.703454 51.225709 -77.519012 67.933214 43.305594 88.562495 -61.687397 -43.088084 -40.304245 22.797436 7606 7606 
44.633423 0.610734 -67.319715 157.885795 -84.718013 -65.750450 -46.534253 61.192480 -8.727497 18.244661 3.929950 -59.483800 -45.878273 -29.615106 -5.264827 126.794891 7607 7607 
-57.388148 -8.240074 -84.376451 190.244197 -47.513484 -12.930697 -7.792295 27.996950 66.228689 -65.780315 -13.596861 -169.449231 -20.806295 -1.997055 31.314920 174.086147 7608 7608 
-80.145585 -23.977860 -64.736105 139.091657 -10.094565 17.495179 5.088408 17.278872 71.971496 -97.448638 -53.462940 -79.579293 -11.490305 6.411033 33.313879 130.284768 7609 7609 
-52.065528 -52.762600 -28.792756 29.323101 26.059661 29.576882 16.567813 32.093428 7.664754 -61.845525 -120.510753 -26.819938 28.401900 31.336530 48.187783 93.585249 7610 7610 
-73.362138 -38.575521 23.051359 -32.301023 29.034723 18.808720 39.918801 33.425079 -23.972348 28.153455 -40.893813 -21.585890 19.208218 -2.249046 10.359840 30.979584 7611 7611 
-87.914373 -19.634812 18.988861 -33.253664 15.462971 14.401891 57.835080 34.114046 6.665278 77.205034 -4.962847 -18.576814 1.039169 -27.880269 -33.276396 -0.213155 7612 7612 
-28.392076 -13.782720 16.339855 -29.559374 2.803230 -7.561100 38.856392 21.295793 12.010706 90.994123 -11.066662 -21.222850 4.907181 -37.139604 -39.641041 1.158147 7613 7613 
26.959142 10.645810 28.385890 -33.764520 -9.800994 -36.788232 -7.562346 21.925250 9.685292 69.306154 17.789777 2.877184 -3.978717 -44.990182 -43.235408 -7.454100 7614 7614 
20.335618 31.560191 12.440859 -9.836783 -13.257880 -31.340617 -28.255446 18.354057 9.525221 -9.265872 39.201447 50.940026 -9.096614 -31.537670 -32.267869 -17.498668 7615 7615 
0.892321 44.491710 9.856219 -0.172196 -7.853270 -22.117893 -15.456364 -9.640526 2.222359 -26.497960 50.636112 47.253665 -0.659125 -19.382225 -9.269003 -44.303821 7616 7616 
-5.442495 40.871091 8.215723 -14.469146 9.818288 -5.575479 -0.087732 -33.330249 11.769434 -14.337609 30.868563 5.402056 15.434965 -1.543489 1.345893 -48.939813 7617 7617 
2.690951 31.219270 2.225828 -53.011216 43.071196 26.597625 7.546003 -60.339658 -1.848545 -11.281196 30.775900 15.380245 25.949370 8.801374 -4.109960 -63.667189 7618 7618 
17.408607 15.948467 2.562381 -49.168955 66.004783 58.001872 7.724467 -118.481623 -10.602265 -12.494097 32.645814 67.350506 16.520003 4.571774 -30.665947 -67.325788 7619 7619 
29.683708 -13.296000 -3.000806 -22.931246 68.804186 78.615528 23.881453 -161.756823 -15.167403 -6.524082 26.423956 39.539816 13.438055 14.954286 -31.376824 -41.287802 7620 7620 
1.333204 -39.514974 -15.499836 -2.584900 38.063013 50.804628 23.388904 -55.990039 -15.439784 -35.968446 40.200167 19.813430 12.440366 25.231287 -16.635914 -29.641107 7621 7621 
-22.052696 -54.707689 -35.494279 -4.435850 -5.670949 7.904505 17.285475 97.171484 -3.079744 -78.181875 28.411316 15.893252 -5.106055 22.893046 10.626142 8.543920 7622 7622 
-29.305366 -57.413890 -33.535319 -12.225278 -22.121020 -3.258724 15.487792 142.371804 14.517790 -109.471101 -17.325071 -35.757658 -9.277996 38.066006 65.760329 53.487702 7623 7623 
-24.669774 -22.342176 1.344034 9.901962 -48.482290 -31.045925 -18.881518 134.175686 19.225485 -95.097360 -19.964378 -53.703369 -31.277242 18.507684 82.913235 79.395946 7624 7624 
8.217814 20.687483 18.127079 -22.292572 -58.684027 -42.435649 -35.900830 112.280702 -14.621389 -22.045624 -17.405538 -79.432193 -34.067430 10.541662 95.595298 61.435214 7625 7625 
39.040978 38.733621 17.691144 -71.866874 -39.822942 -27.233733 -45.521606 88.979412 -45.260399 -0.360793 -24.416855 -46.133050 3.901424 39.418414 90.575016 -17.723757 7626 7626 
62.335948 27.014808 10.038682 -89.852367 -38.809232 -20.728105 -36.543473 86.543740 -5.000584 17.502490 -49.581240 16.765877 3.835961 28.665682 38.544140 -50.732325 7627 7627 
70.820925 -2.366027 -5.510384 -150.158986 -19.876643 4.692544 21.997200 80.401370 43.677923 76.152225 -95.719785 15.880389 1.716578 10.644655 -10.279414 -42.072570 7628 7628 
48.625677 19.515881 27.127394 -233.117939 28.083576 38.618810 59.213926 11.932674 65.039566 102.809546 -88.599637 -11.441045 17.538341 -4.418533 -42.498337 -38.429899 7629 7629 
-9.734974 57.265333 76.758732 -164.393599 38.761973 33.001109 30.351716 -62.010290 29.088984 56.927310 -16.417619 22.848871 24.641679 -17.438567 -55.431050 -44.219607 7630 7630 
-76.303973 33.588332 79.598530 31.026000 25.821904 2.218870 -2.213733 -93.735930 -24.737170 11.700346 20.639677 69.151291 52.575014 -4.383944 -54.498716 -70.446498 7631 7631 
-109.057740 -16.251260 35.360910 183.239738 27.544604 -11.457532 5.246824 -114.625543 -13.888367 -7.940077 30.897050 -23.133230 86.853050 28.179892 -35.039864 -65.928455 7632 7632 
-83.436277 -30.620256 -13.799023 222.337103 7.087191 -27.224885 6.700565 -81.044417 -18.723725 -29.912711 93.704006 -34.695204 59.121380 14.387589 -37.736285 -46.145050 7633 7633 
-27.589066 -4.376972 -14.411989 202.770145 -21.512167 -52.443691 -26.132640 -56.303620 -26.166698 -42.403244 146.978186 23.886188 4.211303 -38.560145 -58.575785 -9.369805 7634 7634 
25.332301 28.028794 -20.382138 181.702151 -21.081420 -56.720262 -45.823667 -91.055759 -5.698700 -32.930999 129.377809 32.312799 -35.897642 -77.007954 -57.039522 46.884209 7635 7635 
39.701772 23.389143 -63.936243 75.366720 9.842229 -7.663122 -7.029357 -69.671142 15.099516 -24.478839 -14.113441 99.608950 -45.137678 -67.811623 -24.764427 61.597542 7636 7636 
31.625344 -17.097036 -68.912128 -7.452081 37.295342 35.254367 -0.969967 -9.743842 5.063002 -28.905544 -107.020708 3.809625 8.770932 7.550092 46.600790 64.131811 7637 7637 
23.042960 -22.817073 -31.746429 -21.192323 37.875922 31.054640 -51.491021 35.273324 -15.608875 -73.665870 -52.283736 -49.367821 23.825609 31.241466 80.868186 54.991041 7638 7638 
-16.240527 -16.894875 11.893101 29.614896 5.593517 8.206911 -76.232956 54.059934 -20.984748 -119.890021 2.339581 33.086972 -4.207183 10.919621 71.111729 27.624048 7639 7639 
-22.734175 -30.622605 24.382051 32.600899 -17.935240 1.038704 -26.891308 40.161673 -43.596679 -44.728215 6.049267 -0.336686 -3.386235 16.541006 50.731419 18.726123 7640 7640 
27.806208 -32.655658 -23.069541 -44.174591 -14.500306 9.648831 25.283086 51.661971 -60.643244 44.867659 -4.876711 8.824736 0.788925 20.118609 7.485192 -16.565165 7641 7641 
75.575569 -12.700362 -39.942866 -44.103121 -25.245236 -9.246460 17.734778 37.927697 -43.934846 78.404625 17.410798 38.894138 -20.798599 1.442936 -38.916444 -32.502609 7642 7642 
78.246317 9.213363 -34.261672 -32.675914 -18.335227 -7.837226 17.525177 -11.874820 -13.348861 91.106329 14.641783 33.999428 -52.662221 -18.090129 -55.695428 0.049098 7643 7643 
23.967262 -19.703208 -39.330090 17.323417 7.572445 18.946124 27.503410 -36.279360 10.357531 86.136868 -30.308243 -29.763972 -45.379195 2.872182 -14.502406 20.587236 7644 7644 
-12.327480 -36.486409 -13.664771 18.160034 15.426179 24.008858 31.062410 -26.178821 23.013530 51.084885 -52.708655 -87.156211 -26.066318 16.375206 36.680027 38.777536 7645 7645 
-6.022987 -11.837178 5.554929 -43.997452 22.437997 23.344869 25.180114 -14.660292 29.083541 19.343775 -28.362423 -69.555500 -18.833014 6.260786 34.327199 27.735637 7646 7646 
-0.181904 1.824985 38.652069 -50.795625 21.512674 10.906026 18.938451 -40.856676 35.896277 42.776150 1.082283 -26.479418 -12.733282 -5.735982 -14.652264 -20.153764 7647 7647 
-0.788000 13.031032 58.961165 -20.574011 -9.739389 -19.586919 29.076661 -50.380539 52.796933 44.800035 28.299940 27.730034 -18.544889 -18.385148 -60.611698 -56.085207 7648 7648 
-10.447242 26.137650 25.268975 12.811919 -30.980544 -34.936299 20.766153 -8.620612 65.346109 18.615915 38.047353 29.455377 -25.168018 -29.282582 -66.122769 -30.891385 7649 7649 
-15.991143 16.645628 35.088826 49.843547 -45.274999 -50.785391 -20.586061 31.059592 7.084747 21.356618 19.020857 28.793684 -9.313780 -27.405168 -42.110882 2.573924 7650 7650 
-12.549192 -8.617037 62.880133 28.329335 -42.089225 -44.121047 -20.193771 36.360804 -19.388577 34.804554 -8.119963 36.191087 8.465854 -18.968654 -26.689068 -6.295233 7651 7651 
24.013928 -7.138044 5.944860 -68.876699 9.928821 10.962416 9.764669 15.400049 -16.359715 10.774862 -29.904915 57.967626 19.994177 -2.001351 -33.444351 -7.026333 7652 7652 
60.175308 0.128683 -21.503494 -72.452467 31.029929 21.751799 -5.512263 -13.617495 -46.678968 -3.344915 -15.134300 68.161472 21.870249 8.731868 -37.057942 3.452536 7653 7653 
18.995630 27.681020 29.972748 -20.191810 6.258156 -3.777682 -50.264774 -8.673289 -26.516388 17.026217 29.486408 -8.259325 9.905153 -4.389408 -27.117552 9.864896 7654 7654 
-46.069253 62.048946 32.946261 -6.617912 2.265165 6.192283 -59.598125 8.832634 -16.399684 23.276982 50.279771 -70.369749 18.888518 3.331234 8.335086 -17.342158 7655 7655 
-49.026365 57.855223 8.029484 -30.809944 0.520133 21.238409 4.390541 -12.197480 23.676348 0.329797 5.966671 -81.048164 16.232779 7.462090 48.556799 -21.176319 7656 7656 
-48.517903 28.644831 4.700255 -59.044474 13.219640 34.889116 63.069149 -36.960614 50.856575 -8.455764 -44.925697 -94.102102 16.994145 15.025663 51.111077 13.496103 7657 7657 
-60.911442 -3.537481 -1.341566 -51.486661 27.906161 42.362990 59.111579 -12.103579 43.731526 -2.692340 -58.795035 -58.144219 18.773626 23.987692 20.121602 13.017149 7658 7658 
-15.018018 12.509160 -22.405686 -44.049063 3.231226 21.675476 6.981739 37.075166 49.839944 -22.071546 -43.587648 13.572504 -12.227551 11.172826 -8.531501 11.832972 7659 7659 
11.552418 30.345652 -47.997895 -46.491020 -10.822138 28.855763 -37.340822 71.898041 24.099570 -56.929119 -49.190916 4.139798 -26.242999 20.750960 41.680517 41.692189 7660 7660 
-2.422263 19.721129 -21.717235 -32.711034 -23.444067 43.750174 -40.096116 56.919413 24.826781 -74.341019 -52.090969 -41.600788 -51.638880 18.301007 103.866054 72.677815 7661 7661 
-21.683294 37.979025 37.342447 57.335264 -48.811589 6.461597 -46.295089 -22.328360 14.532581 -87.078067 1.358250 -50.568662 -77.871653 5.296593 110.191416 84.139542 7662 7662 
-32.799211 32.284093 37.729740 124.989849 -52.011771 -22.112807 -53.418160 -34.661733 -37.584964 -123.852244 17.316019 -22.075851 -55.762893 19.023250 128.113736 74.822947 7663 7663 
-6.715383 -25.569987 -12.430682 97.681540 -16.960127 -16.690592 -40.956624 21.641856 -88.366895 -97.501735 -4.394057 7.393577 8.478269 38.790404 115.891322 19.709114 7664 7664 
35.351803 -42.370650 -41.578812 47.852078 27.534364 -8.489149 -24.051878 5.752244 -103.859688 -59.964017 4.748616 11.192560 71.207135 54.185028 67.398705 -44.908340 7665 7665 
46.005792 -42.237568 -9.568498 43.018521 42.224461 -4.996211 -10.241536 -64.204962 -41.187097 -70.050027 24.168116 10.624998 77.542868 38.225412 19.600133 -58.924402 7666 7666 
70.205437 -83.238955 37.694380 18.362032 41.423852 -3.233309 7.693031 -88.906469 -13.772967 -16.915261 24.669579 48.194304 57.642874 -0.707498 -39.485213 -59.625818 7667 7667 
102.635251 -99.539155 43.127797 -44.584223 23.297819 -10.893097 8.394221 -22.438612 -3.918518 53.512232 12.438178 71.421876 27.401189 -29.800629 -91.190958 -39.863371 7668 7668 
39.199311 -51.240467 28.830343 -1.445143 -15.332673 -34.589706 3.206377 31.371957 86.641411 46.002613 54.399244 44.622042 -6.151247 -63.521462 -146.285691 -15.706910 7669 7669 
-9.723215 -21.561878 -17.361704 27.380692 -28.461349 -44.027813 35.954490 57.800776 29.290587 72.370725 127.526655 39.257128 0.218491 -71.905414 -157.472753 -39.285418 7670 7670 
-25.211792 -32.896163 -82.433693 0.062371 -1.482538 -11.670919 71.866523 81.766211 -53.044015 39.601663 112.747084 -15.603576 19.088652 -33.602481 -71.178063 1.990737 7671 7671 
-49.353905 -39.688649 -96.250410 2.294288 61.650106 48.666158 105.791131 -33.108718 -25.734165 -66.066981 22.835597 -11.374049 20.031107 -3.991074 14.924630 49.374936 7672 7672 
-47.925264 -46.950890 -59.210610 -4.339851 90.417909 62.142745 108.436962 -102.571001 -24.046534 -36.311756 -59.267756 3.254555 25.200567 14.177963 48.653136 28.339825 7673 7673 
-38.211420 -34.927900 -50.085025 -34.472225 70.652558 29.958622 55.794379 1.291010 -10.114516 11.760721 -91.297407 -19.126567 23.659883 20.007137 47.716927 17.393823 7674 7674 
-20.379473 -15.990303 -71.130971 -71.834673 55.038341 11.440587 23.459220 89.397273 -18.246216 42.407209 -92.815578 25.231541 15.704362 13.333231 34.353444 -19.967993 7675 7675 
-13.407527 14.015836 -39.714173 -75.659207 11.604014 -9.010259 -13.992194 126.163510 -14.139966 92.426042 -68.519273 -7.753833 2.574104 17.642950 37.053044 -59.283068 7676 7676 
26.391234 67.956818 16.199705 -41.485674 -38.367120 -52.985925 -41.529729 63.820691 -6.877636 146.527141 -7.042433 43.368144 -42.984217 -26.472306 -14.191959 -92.326732 7677 7677 
60.870410 76.630420 11.800569 3.358174 -69.836678 -69.443512 -1.716050 -11.663333 7.059245 124.127791 7.703441 91.215921 -54.636481 -44.641277 -61.040912 -69.787728 7678 7678 
34.166967 35.393523 20.022350 95.880845 -90.689143 -66.869208 -5.667732 -22.237602 49.931766 2.401916 14.580098 20.492301 -29.696443 -9.050400 -52.546424 3.887186 7679 7679 
14.613762 34.476288 72.103266 167.833447 -116.175033 -102.530807 -63.970488 -6.350435 75.133976 -35.895000 63.998643 -38.351309 -37.607389 -17.349498 -68.158921 58.229498 7680 7680 
16.402745 60.630000 65.461874 33.356487 -88.286063 -62.317854 -45.402111 20.154921 77.255891 -1.031395 28.874676 -97.224913 -34.886381 -4.015455 -56.522367 87.549944 7681 7681 
1.386006 44.227875 48.773586 -65.110593 -32.120013 8.651595 -15.510031 9.701574 34.018316 51.417148 -27.205532 -84.931789 -24.537228 10.367030 -15.806505 56.678560 7682 7682 
-24.282925 -1.905906 28.972841 -12.978135 -17.269230 21.310106 -3.349061 9.502309 -13.234983 90.897165 -32.124629 -69.815754 -14.672827 0.577760 8.568897 29.804371 7683 7683 
-54.059542 -40.706843 -16.640937 8.343156 5.695960 40.201556 38.399135 18.767515 -10.554579 36.141697 -31.580256 -12.136359 21.471070 7.615631 8.524081 -19.481284 7684 7684 
-70.389155 -33.970386 -32.356490 -15.449407 15.478776 51.023752 35.139816 50.523096 46.801248 -54.825722 -27.248579 7.821781 39.293191 19.042203 23.029525 -53.913648 7685 7685 
-64.913318 13.177768 -22.911620 -65.539131 14.254121 50.173583 17.750096 58.008500 73.486801 -82.963716 -32.264877 -5.614374 23.484249 18.779048 31.071635 -25.978766 7686 7686 
-51.198301 43.139853 2.984300 -84.285788 20.492040 33.937198 20.075241 14.855456 36.947092 -25.890099 -19.092510 52.525716 3.688391 -1.191418 -10.182877 -36.804295 7687 7687 
-32.475604 51.717744 38.084127 -73.416632 13.663543 7.658649 11.889813 -17.121640 10.773016 15.818281 27.170415 103.190087 -19.399977 -27.644235 -51.261143 -58.646444 7688 7688 
0.888769 59.154379 81.350712 -4.665580 -15.271192 -36.065993 -23.400865 -61.990229 -45.469985 15.945304 143.340581 99.590262 -34.546230 -48.343766 -80.725158 -49.791008 7689 7689 
45.937862 36.635703 47.063324 11.674072 -0.097730 -23.154213 -41.248979 -76.810039 -115.724441 -9.824121 145.653288 33.872995 -5.883106 -7.861497 -41.164210 0.931092 7690 7690 
54.093712 -24.986703 -44.577876 33.974002 55.975009 38.438761 -50.667297 -62.249607 -101.008477 -91.422158 -8.267016 38.566225 45.748167 48.447013 31.852401 36.083844 7691 7691 
49.078559 -43.475625 -51.125356 42.296848 61.343652 35.532154 -61.170521 -32.479712 -69.832938 -82.097117 -44.119870 28.621372 51.568449 37.645253 54.242703 23.972148 7692 7692 
22.857229 -24.671714 -7.177992 -1.592720 54.987243 18.798228 -35.180846 -28.019429 -32.202625 -9.025557 -43.835231 -65.805976 36.372649 23.288534 68.371013 22.837193 7693 7693 
3.570623 -18.175296 23.866488 56.572567 35.432971 8.925152 -42.087645 -68.104860 2.592986 -24.062912 -51.362108 -71.855362 30.717798 27.365948 63.079002 23.524647 7694 7694 
-4.119144 -10.522836 52.538109 89.201286 3.652634 -6.953884 -47.160997 -76.635168 0.003825 -59.586399 -14.250941 7.288988 12.535737 17.106731 17.212161 19.689898 7695 7695 
-39.869802 -9.022668 71.171345 95.310758 1.845641 -11.586820 -26.894073 -80.954381 3.041281 -43.343603 21.454783 32.704935 -8.647779 2.227446 -17.511293 10.074230 7696 7696 
-39.388439 4.530615 52.231462 62.490006 -3.326288 -3.177140 -14.254569 -59.105647 3.056124 -37.596304 62.223140 59.139320 -33.638431 -18.230049 -21.387224 -13.566576 7697 7697 
-37.676437 -2.118854 5.025263 7.988962 0.289779 15.962632 17.160305 -6.631650 31.687924 -4.709396 20.377670 13.445704 -34.742942 -26.478756 1.097007 -0.677211 7698 7698 
-14.024463 -16.365852 -48.689890 -57.937325 7.850673 30.112938 53.347802 45.706117 12.118776 73.199022 -43.065337 -73.455282 -18.882277 -14.825690 24.019266 40.891521 7699 7699 
37.003300 -35.658983 -90.382080 -101.580919 19.116311 31.717919 75.404218 64.380234 -63.154596 88.408824 -60.186428 -66.142010 10.553042 12.726549 34.648583 43.146035 7700 7700 
54.802248 -42.159541 -75.225249 -66.302763 19.386405 16.097420 76.037798 17.363683 -1.487759 49.779698 -48.786015 -58.182158 23.350839 14.690623 14.227113 6.407660 7701 7701 
83.809994 -13.239190 -13.411661 -115.703014 -15.701805 4.514382 75.439037 -5.707743 76.191855 25.007135 -43.565756 -34.518828 0.531448 -4.532392 -14.387297 -4.726165 7702 7702 
81.546242 -4.847101 39.756233 -202.886564 -22.652060 11.066051 82.552844 15.464356 50.194300 61.792718 -60.664005 1.313805 -11.347407 -8.786336 -27.228190 -5.274886 7703 7703 
40.392604 -0.270022 37.791205 -119.876534 -8.873918 4.638216 52.282691 -6.084243 45.948849 57.183086 -29.058257 29.969768 -17.763887 -15.339406 -52.185265 -18.754889 7704 7704 
24.326285 -20.243003 11.425039 43.658863 -8.800752 -11.281681 -6.134503 -32.950247 16.248834 26.960908 -7.994368 6.129982 -6.755659 1.912836 -34.136502 -2.366031 7705 7705 
-24.353368 -14.866917 24.278621 153.535854 -23.962301 -33.743308 -66.538449 -14.350134 -5.088061 18.350930 27.603231 -88.170083 -6.731766 11.057136 11.348170 31.630443 7706 7706 
-74.735183 47.448796 22.040858 219.334743 -41.833531 -62.497465 -97.902374 -11.855845 -21.936677 -47.217816 120.691975 1.159649 -36.141883 -26.983605 5.247113 5.181245 7707 7707 
-62.147112 38.687867 -45.295450 179.291116 -16.800669 -33.532731 -65.675706 5.472684 -48.773862 -91.588898 59.336291 88.551518 -6.751591 -9.753806 33.545787 -24.565440 7708 7708 
-63.941538 1.727975 -58.073107 186.540623 3.260885 -16.549004 -50.915589 -2.050245 1.125266 -91.689553 8.309651 -18.485233 30.216298 21.588554 64.234418 -15.299402 7709 7709 
-100.125915 21.504565 -14.029880 188.050390 9.903627 -19.214716 -42.146227 -43.941843 74.522242 -93.612863 73.818803 16.701063 9.522572 -4.992361 -8.206818 -67.752638 7710 7710 
-92.777553 40.693968 -23.212654 -12.993521 48.758540 33.827168 21.494218 -15.790166 93.356077 -37.758843 31.510468 29.490398 13.290854 5.429892 -31.441232 -103.877614 7711 7711 
-52.493178 31.555292 -18.207117 -150.432034 42.179661 36.071835 59.426931 51.898609 36.196493 60.445371 22.308094 37.336264 0.153718 -13.327894 -23.972510 -119.139536 7712 7712 
-5.440429 6.801493 -13.355347 -128.166934 6.942099 12.652520 44.025326 76.541272 -36.875292 69.309847 30.584512 102.250594 -13.154276 -35.857753 -27.588237 -88.669397 7713 7713 
66.914796 8.018669 -22.999798 -101.613701 -10.040562 1.427068 6.727303 51.566224 -133.199538 45.446315 6.057350 66.470302 4.788873 -7.887062 5.245718 13.078043 7714 7714 
93.636433 -18.835149 13.605988 -31.522949 -44.869994 -25.659154 -35.669456 49.314281 -115.025279 12.545254 -68.153770 -17.748487 1.044467 13.444769 34.678913 139.214133 7715 7715 
103.106668 -60.145857 62.958413 14.466604 -63.837305 -36.619275 -56.455030 36.525781 -27.254627 -0.272206 -141.832918 -146.678752 7.552587 39.864147 51.651677 216.970093 7716 7716 
101.295287 -28.046359 42.168935 -32.824177 -52.300778 -20.891319 -44.556543 35.154954 -6.054367 31.478727 -103.827841 -162.144846 4.514360 40.781353 41.822122 153.430493 7717 7717 
78.386256 8.847248 -12.257011 -86.411518 -46.315706 -8.214610 -6.222115 72.187455 57.694501 10.448320 -86.928185 -128.251773 -25.399485 12.761558 44.140000 115.535065 7718 7718 
92.814769 14.401927 -27.597860 -141.136917 -18.377601 -13.975344 22.485141 71.385884 89.365441 16.070160 -71.504325 -109.923280 -28.866344 -17.401443 37.134986 85.124806 7719 7719 
49.263837 -6.412460 -24.984794 -117.917571 17.097059 4.871289 44.672883 33.409757 64.990126 21.833613 -17.490393 -55.984979 -8.178136 -24.559877 14.254481 5.135165 7720 7720 
-5.729811 -29.313686 13.792412 -23.460799 15.675369 14.549453 40.249665 -25.762602 11.090542 -1.732954 35.928440 40.450990 0.121575 -20.361227 -11.206645 -54.290720 7721 7721 
-18.083433 -25.857723 28.782421 49.072520 31.239139 17.247622 -26.201420 -56.199126 -35.633021 -2.662358 61.676568 147.459652 5.402657 -28.800347 -41.842155 -105.600996 7722 7722 
-53.512153 -13.707321 31.443987 135.646007 26.720480 5.197365 -60.109620 -71.678745 -51.062190 -33.401577 79.485856 179.944972 13.134823 -28.658815 -49.390746 -110.052323 7723 7723 
-107.618613 13.932361 56.006471 177.963222 -6.200815 -12.214143 -45.827026 -76.041457 -40.298720 -92.093391 98.666704 108.107832 5.906865 -10.775296 -19.405197 -50.108796 7724 7724 
-130.441876 24.934121 38.534153 79.817129 7.959034 17.969431 -2.474745 -36.297247 20.619540 -79.860392 72.597622 4.458350 -9.716935 -2.233200 6.034193 -11.899178 7725 7725 
-84.992547 -1.903762 -7.456747 -14.387939 37.317340 46.853707 41.631873 -17.061925 23.834132 -17.285294 10.093996 -21.816204 3.020160 18.792941 -2.855147 -13.784584 7726 7726 
-29.305933 -10.958490 -46.609914 4.012744 43.548516 42.786399 21.396677 -24.869998 -10.491338 -5.971895 -0.176065 -74.042733 27.043193 51.601269 4.478223 7.559346 7727 7727 
21.972313 3.763524 -61.510967 1.641283 29.825403 16.968126 -8.690687 -3.968995 -16.241548 -36.574434 43.845035 -29.105334 8.479471 33.565893 -8.410751 4.441668 7728 7728 
39.235387 1.777809 -67.486694 -40.268504 21.926885 9.830564 -6.392049 41.376602 -10.062076 -74.142476 0.183795 88.405770 -9.083856 18.334400 -4.401812 -9.233744 7729 7729 
43.614675 1.319765 -51.562729 -46.443662 2.868140 -2.848502 -3.208237 56.260551 -13.979791 -71.277712 -24.842184 57.630164 3.199868 29.277762 35.732330 -15.740437 7730 7730 
74.318406 7.279019 -20.449742 -54.488764 -25.814165 -27.212306 -2.462745 48.830296 -80.313483 -15.766413 20.039791 29.657539 7.558379 23.037360 43.341728 -27.554900 7731 7731 
45.280855 16.224796 14.323846 -42.859814 -36.914179 -39.798835 -6.188038 49.931368 -77.926987 45.187565 22.772024 19.467496 -2.797616 -2.657399 12.617602 -16.662685 7732 7732 
-33.066489 45.007861 27.094548 -57.551897 -15.029690 -12.654744 12.850015 33.350396 24.695651 49.355706 -11.776102 12.774242 -12.809705 -26.799136 -27.540252 -7.900403 7733 7733 
-41.590675 37.048808 -19.270441 -118.148524 18.015084 45.885339 79.507654 -1.447245 105.030407 32.061836 -102.518132 -2.117196 -3.292594 -8.435887 -26.049317 5.320882 7734 7734 
-6.437972 15.411110 -10.487097 -84.593295 16.751098 38.497297 92.439417 -61.580558 95.070687 45.267476 -75.522984 -15.708091 2.863462 2.845474 -45.018666 -9.797357 7735 7735 
-11.800125 21.055137 26.327834 -21.486337 -1.618865 -4.384196 62.505286 -70.598734 48.764359 77.141006 74.207349 -22.858753 -26.403755 -35.653900 -84.122788 -31.073519 7736 7736 
-2.203350 17.295457 -0.797846 -8.646126 -28.566551 -31.731695 51.945770 2.704342 63.921844 114.244377 84.876441 -68.982325 -52.449645 -62.774655 -78.413447 -0.422591 7737 7737 
23.513622 21.215718 -9.058968 33.549340 -48.105002 -56.252628 25.102141 10.035776 39.552247 141.434391 19.217697 -53.455216 -33.412473 -53.661983 -65.554788 5.880125 7738 7738 
32.472399 5.626183 27.767887 67.707105 -48.300266 -61.937221 -5.834363 -17.501724 15.106374 118.092296 -10.550233 -14.904652 -7.275988 -38.314036 -56.313333 -5.840427 7739 7739 
37.909617 -11.490611 60.914012 23.329065 -38.046448 -45.800241 -34.544690 7.729296 14.787292 44.697264 -32.631404 48.788340 -3.397805 -30.425935 -27.733539 -14.084212 7740 7740 
35.600864 -11.511403 58.736857 -17.181944 -14.210379 -30.846818 -55.663770 35.076593 -36.796630 -8.936004 -32.421463 64.700131 15.253465 -7.301023 20.241797 -14.740273 7741 7741 
13.052588 -45.357612 9.464148 -28.818526 38.661547 14.873085 -38.400355 36.525125 -67.038886 -29.205236 -47.509036 -15.218925 67.402847 44.167412 59.878396 -12.476571 7742 7742 
-13.151779 -43.760330 -22.302649 18.015769 57.084408 38.143021 1.922176 -35.950616 -14.359978 -7.722867 -18.555556 -81.567736 74.862979 41.307955 46.945712 -40.910510 7743 7743 
-16.727696 9.478283 6.138627 88.927751 34.515096 24.404223 41.394320 -188.130605 54.026889 -21.799214 28.613278 -51.779469 14.279102 -14.763005 19.246780 -27.824358 7744 7744 
-26.851292 37.121121 25.675711 106.344296 22.465399 25.633269 2.678292 -193.066796 47.608404 -53.005976 12.727963 -3.249226 -22.184573 -20.729227 9.865749 28.966885 7745 7745 
-43.754378 5.479255 3.577530 96.968518 0.596944 9.472696 -52.498771 -19.841794 -2.081551 -6.687712 -8.414648 -30.329926 -9.335955 7.009589 -11.999302 61.839506 7746 7746 
-74.570817 -35.433880 -35.076388 56.708345 -1.774730 15.239861 -23.178707 98.086316 -10.486940 6.797734 -42.625628 -42.908164 9.194763 28.185044 -21.337153 73.180344 7747 7747 
-110.886255 -47.708698 -36.975715 23.879191 15.354857 30.235894 -2.266260 128.366986 -12.802367 -23.169819 -53.746929 -83.989823 14.395345 45.771300 31.694386 81.847908 7748 7748 
-79.705684 -45.715798 -20.738242 -4.431494 28.985612 26.092853 -9.779740 105.292493 -64.728870 -45.763117 -39.390448 -49.839470 4.508172 45.157009 95.193345 54.863379 7749 7749 
-17.229304 -23.391165 -7.100265 -27.717310 22.561194 4.637278 -57.762501 106.002073 -76.197955 -100.526739 -33.962759 26.598419 0.479191 47.003458 134.387828 2.218558 7750 7750 
34.540043 11.819359 20.029987 -43.541266 -16.346598 -22.100800 -96.464726 112.064000 -31.951418 -155.534798 3.643715 53.141819 -11.945124 30.058781 135.286644 -22.699618 7751 7751 
64.162720 22.503969 21.183386 -38.683862 -53.354161 -24.385634 -86.534257 95.107838 4.726590 -157.523363 32.009763 73.503441 -34.245701 -0.923326 67.605200 14.847395 7752 7752 
50.709139 -22.746318 25.716059 7.553472 -51.299387 -14.676228 -43.966820 48.710083 -16.934438 -75.525825 22.821219 65.185919 -19.623423 -2.492107 2.849747 23.718907 7753 7753 
33.947885 -73.180749 29.787958 28.507741 -17.046454 2.402117 9.482713 -13.901211 -32.707428 9.915874 10.681154 37.687286 4.236384 5.711724 -16.789523 -18.735472 7754 7754 
30.051676 -50.996989 9.850734 3.062784 11.539820 13.317853 17.968941 -34.794819 12.280443 42.712551 -3.981280 -49.406254 10.970201 17.116086 -14.194440 -15.497307 7755 7755 
8.638827 20.493301 -18.891072 -15.642890 22.078050 21.138692 31.311610 -69.126518 45.920390 50.304456 3.621404 -67.782950 7.112307 6.505686 -12.112768 -33.568524 7756 7756 
-13.378125 31.887420 -27.462059 3.984693 24.415795 29.406154 24.722861 -73.576740 49.808389 16.335320 10.359797 -42.111612 15.923964 5.944724 18.406345 -74.666927 7757 7757 
-15.934378 17.000345 13.365007 34.991949 19.401380 17.676517 -10.794806 -75.706013 5.394328 -16.623752 46.110392 42.194386 9.447490 -4.928471 17.079260 -98.673633 7758 7758 
-23.043061 25.028164 18.016574 11.021371 15.452130 11.927929 0.134488 -58.537595 -47.834457 -24.263230 54.847352 145.939094 -8.840872 -25.190804 -23.900310 -70.756773 7759 7759 
-4.468463 14.721612 -13.874344 -22.883769 12.631977 17.304330 24.081644 -27.512987 -106.148873 18.512347 12.863009 115.980538 8.895480 -7.260855 -27.320913 -15.520734 7760 7760 
18.183656 3.180234 -8.945242 2.379656 14.876802 3.848235 6.262767 -39.786108 -119.034396 52.341059 -1.790836 51.785955 29.141401 0.576997 -41.773304 28.753123 7761 7761 
24.182068 -3.503183 -14.326754 3.617338 16.409487 -10.375616 1.163525 -17.166865 -41.505928 40.302812 -36.868545 -26.348546 32.400995 7.914902 -48.388249 72.492560 7762 7762 
9.481883 -18.120506 -37.500115 -11.155463 13.649310 -8.274429 28.664213 23.255107 -13.010152 37.421713 -51.492271 -41.036314 27.628800 20.230011 -34.617311 54.875526 7763 7763 
-18.908520 -9.870855 -16.651605 -13.985193 10.116076 -14.044267 20.916486 42.427879 15.808940 -32.739804 -14.145708 -25.428297 14.195505 17.279033 -17.000957 42.031286 7764 7764 
-20.914914 39.204481 20.326977 -11.832679 -15.946999 -40.918976 17.739067 12.343042 71.830485 -86.804887 67.854742 -21.691751 -23.710622 -22.721940 -27.697862 42.941836 7765 7765 
-3.615698 63.721097 10.836023 -23.510767 -19.406443 -40.152786 43.095532 -30.966957 73.869404 -49.641703 58.861162 16.070582 -43.296975 -48.236243 -38.807300 31.181073 7766 7766 
19.469523 46.198028 -10.748541 -36.626662 -4.447110 -21.730322 41.211083 -33.325998 68.073990 7.849262 -24.983841 5.823630 -28.522220 -33.050796 -14.893015 19.702990 7767 7767 
30.169120 17.400704 -10.336663 -22.911224 -4.927483 -23.466534 29.816169 -15.744089 29.467097 98.597868 -20.662577 -22.794335 -13.172099 -25.277042 -35.418630 -10.740281 7768 7768 
53.825979 -22.797516 -4.576320 -33.989427 -5.872089 -5.256176 36.964587 -18.299037 -74.903023 157.101633 -21.028009 3.360972 14.648045 2.313326 -55.249776 -26.243168 7769 7769 
74.846737 -29.420329 15.231210 -41.946643 -20.437337 9.547420 57.752298 -65.573356 -52.006516 159.217178 -3.682528 32.979038 9.602950 -5.829558 -88.835049 -51.445515 7770 7770 
66.622718 -1.150505 26.675935 -36.441943 -30.335637 11.505757 73.260918 -110.137243 19.389013 167.315741 41.290005 9.616501 -18.548206 -29.334337 -108.718970 -81.009748 7771 7771 
27.881873 -8.402282 36.942425 12.182250 -12.971316 32.788367 49.344033 -137.765350 -8.099788 161.622840 13.822857 -45.865382 3.714161 11.406729 -54.767792 -81.833626 7772 7772 
4.911905 -9.607192 17.750576 46.325904 -3.384973 39.577581 -20.487287 -75.086514 26.621215 95.624555 -29.540353 -70.037642 4.877548 20.003359 -8.726735 -38.821947 7773 7773 
-7.093962 24.502332 -32.698997 8.204123 -20.717096 16.917517 -27.170415 38.056498 53.254576 35.411470 -41.122309 -50.192477 -38.846701 -19.482473 25.585226 35.392689 7774 7774 
-35.560812 46.330424 -62.755838 -56.212981 -30.775699 -0.982515 16.837912 123.119508 45.775222 -16.215077 -16.619973 -9.626934 -67.842526 -51.441351 27.273329 88.697310 7775 7775 
-42.930993 44.370497 -85.140744 -60.051753 -23.521629 -5.252078 -8.201413 180.728113 19.585375 -124.975564 35.519531 70.645196 -53.860486 -48.887063 23.246000 78.727012 7776 7776 
-52.444454 29.191146 -44.449219 -8.772474 -12.811512 -13.105517 -52.410302 154.802333 -6.739002 -205.750088 57.906354 73.317792 -14.703736 -18.582055 49.214112 65.336623 7777 7777 
-10.730385 37.844822 2.561673 -9.758398 -17.164499 -23.222102 -113.369329 133.838218 -0.342863 -224.046580 59.338786 14.230968 -9.902219 -4.388476 80.948336 84.162048 7778 7778 
9.564467 22.027881 13.713951 30.069193 -17.843088 -28.200635 -111.859251 82.527482 19.784568 -190.264391 29.888770 -21.382180 -1.176944 10.725359 94.614458 57.810360 7779 7779 
-17.391785 -49.980697 41.081820 65.525155 9.558427 -12.626899 -42.431514 6.265494 66.945381 -91.462324 -45.035708 -90.006454 18.677542 27.793559 78.837761 34.250243 7780 7780 
-33.770757 -88.782428 61.287505 -13.979381 46.622734 28.098363 0.341600 0.182364 52.351543 26.651961 -98.581692 -148.896368 35.807409 43.903681 70.364495 18.398971 7781 7781 
-64.569008 -54.909012 61.092003 -54.824492 53.828832 42.012328 16.126830 1.242518 20.992719 61.452824 -78.968977 -95.872817 36.459964 43.675092 43.057693 -30.796497 7782 7782 
-33.156845 -20.476875 -1.205752 27.522480 37.583566 18.736706 -21.330406 -7.672875 15.170246 -5.681187 -27.494592 20.787950 18.640882 31.097010 -2.010706 -50.509603 7783 7783 
18.634529 -23.829898 -37.764030 106.697849 11.219254 -15.921684 -39.539602 -19.496418 -5.365818 -12.937083 32.898361 19.245764 27.907935 22.889401 -30.147549 -54.491012 7784 7784 
19.227770 -32.334450 -15.975346 126.359388 2.007356 -31.267920 -21.375080 -46.641719 -30.175254 -7.867444 69.586329 26.976503 39.301051 -0.906415 -43.054304 -53.860466 7785 7785 
3.007146 -34.613978 -14.856447 106.813318 16.162781 -14.400167 1.949985 -64.062637 -35.767007 -40.724459 32.630863 104.791009 27.589090 -17.865724 -38.695951 -31.957821 7786 7786 
48.530288 -27.184209 4.834377 39.792719 6.491387 -16.560995 -4.140795 -51.762772 -14.442268 6.144857 -4.446723 58.603341 15.820385 -11.848191 -24.372237 -25.459163 7787 7787 
88.546057 -1.717409 45.787199 -29.775568 -8.051833 -36.240836 -16.923870 -41.623739 4.605527 69.386652 -1.804101 -12.904748 4.427643 -12.545859 -25.542259 -25.622854 7788 7788 
32.234011 5.151622 56.424777 -38.081727 -17.832792 -30.349088 7.461814 -15.008616 8.693724 111.199687 -24.419135 25.770390 -35.635848 -37.656467 -34.868994 -13.083357 7789 7789 
-33.975378 -22.707001 -22.174963 -85.030929 8.264696 36.650064 82.795983 36.177528 -27.372232 140.211737 -114.726065 -8.004017 -33.141865 -12.644491 6.117841 49.559092 7790 7790 
-84.095975 -14.010592 -56.148929 -46.681765 13.600670 58.236407 90.740079 38.360105 -5.644569 72.120132 -89.909844 -67.195075 -16.937286 10.521766 12.618954 84.425921 7791 7791 
-117.366246 14.183862 -18.927506 71.551964 13.306903 36.893068 22.783986 -22.426030 99.256556 -84.596800 -20.750148 -37.237875 -13.079367 6.122638 -12.405451 62.690447 7792 7792 
-80.246839 36.618394 9.554051 75.967440 13.048418 10.675611 2.762315 -68.379390 60.159837 -95.831578 4.029161 -14.592166 10.758062 13.157773 -8.393820 30.712732 7793 7793 
-41.051716 40.117927 17.292236 47.882777 -8.105940 -20.401657 9.848362 -45.581989 -36.365221 -13.751478 48.114721 58.714120 9.432544 -4.390256 -26.272099 -35.482331 7794 7794 
-7.690149 16.909564 -8.290632 -12.941838 8.486556 -3.106676 39.355560 -32.722386 -63.011373 21.400742 17.299235 100.878133 21.585320 2.323901 -25.587005 -74.888952 7795 7795 
86.658959 14.426566 -1.869585 -40.850816 -11.381788 -19.971195 7.382707 -34.394848 -151.557677 61.484941 49.729246 58.103371 37.245982 24.146355 12.999150 -92.151368 7796 7796 
132.995650 4.152249 -8.415981 -58.804678 -26.429179 -23.852665 -22.594226 2.948830 -145.725597 19.706417 77.459173 38.781951 27.818599 29.334765 35.565989 -82.941297 7797 7797 
129.035374 -11.260353 -11.837024 -43.744354 -24.901760 -20.211395 -19.701506 2.621018 -63.608496 -0.727765 48.584559 53.690743 8.365807 9.531156 25.930255 -81.766260 7798 7798 
78.601972 -8.525493 -15.183576 -48.849090 -12.386726 -2.920741 -6.584263 15.847916 -78.454627 49.028361 38.533024 12.007052 14.696842 10.478189 51.024421 -97.313263 7799 7799 
23.272121 21.224467 -15.098970 -114.739392 21.707324 44.251913 -7.226547 26.609084 -22.492911 1.053483 2.944145 -47.939228 26.358582 32.090821 62.488541 -54.503432 7800 7800 
34.048943 59.968151 -13.234464 -96.432050 45.013250 65.129498 -12.976189 -81.517138 40.928710 -60.376052 2.393887 -52.419544 17.809579 32.596811 18.098577 0.968032 7801 7801 
-3.205649 54.276305 -17.863217 -66.121163 44.718727 59.710815 61.042777 -132.558595 55.792651 -62.111326 20.686549 -31.156108 4.824813 20.824282 -36.606565 27.745705 7802 7802 
-51.256928 15.280418 31.767066 -10.639219 2.690272 0.663583 48.047548 -36.552741 76.620596 -56.244746 19.013169 -4.494347 -10.965425 0.304823 -71.454637 47.220569 7803 7803 
-34.580313 -15.789039 39.818550 -4.259527 -26.900156 -39.093057 -10.338367 91.141908 59.536171 25.112123 -18.678730 14.529172 -40.504667 -28.739043 -69.501402 58.246376 7804 7804 
-42.025160 -23.899731 -2.034780 -14.681164 -28.537819 -30.299760 1.206287 140.272127 16.554742 101.539862 -31.660780 3.941363 -72.722465 -48.038095 -35.939196 66.324569 7805 7805 
-75.712869 -16.181178 3.778587 95.028930 -37.466581 -32.087699 -25.381735 88.022545 -22.963662 86.215157 17.305193 -79.964063 -57.933833 -30.098591 23.228654 64.211146 7806 7806 
-51.377979 1.073532 28.588996 163.137723 -71.039480 -54.711607 -87.250922 71.579736 -50.649367 -21.305095 82.451542 9.795021 -46.364566 -22.981775 41.491798 7.562442 7807 7807 
-34.429456 -15.263313 26.544361 149.350547 -67.934595 -47.680355 -95.157089 84.569901 -44.429867 -112.227104 54.186374 89.056288 -6.317546 4.461680 50.448902 -35.178728 7808 7808 
-37.409290 -25.270518 18.509764 80.910381 -45.482728 -26.779561 -50.154709 85.676660 76.617737 -91.868659 -32.667868 -64.787070 30.628672 25.544013 56.026552 0.506625 7809 7809 
-37.250716 12.070236 18.690248 35.656232 -32.033255 -20.841044 -8.577983 32.286281 127.476011 -30.231427 -28.229691 -25.304075 -19.204851 -25.519430 -11.368827 12.382291 7810 7810 
-42.100690 29.190624 13.586321 -4.243041 14.194961 -3.781827 20.005656 -26.852004 66.723472 27.746203 -17.949424 53.287386 -36.443591 -45.523306 -55.433499 7.592759 7811 7811 
5.211862 34.606578 -3.046657 -93.262868 20.334794 0.096240 30.386362 5.673690 21.614842 23.723071 -33.285785 32.201334 -29.892415 -22.614146 -27.280958 35.534058 7812 7812 
39.143562 24.902316 -3.740449 -79.366715 -5.718667 -7.863090 16.936262 15.706780 -1.170064 5.388509 -23.713514 7.296161 -23.927308 -1.268720 7.090776 30.304160 7813 7813 
26.681753 20.828594 20.126202 7.325643 -11.664368 -14.457585 -20.798179 -28.042059 12.942974 -13.988442 13.132594 -30.097955 -0.987120 2.565035 11.994889 4.438026 7814 7814 
11.473581 22.419829 22.687898 80.628817 -12.997246 -17.182906 -46.352996 -60.676976 13.203087 -23.047275 58.329421 -43.742809 12.864502 -0.773934 6.718708 -23.551700 7815 7815 
5.468896 -12.213247 -20.106727 67.480363 19.982247 15.411423 -20.201331 -55.821623 11.404986 -24.001176 19.370768 -55.713553 30.715598 14.350855 12.749233 -8.876712 7816 7816 
15.035537 -60.524116 -40.893666 1.590311 64.062540 55.810199 30.124295 -65.205100 -17.837795 -12.773856 -48.869090 -9.944120 44.421040 23.251977 8.144113 13.607732 7817 7817 
1.252423 -98.266999 0.100240 -36.018343 81.889881 71.540167 62.527083 -83.024451 -47.755512 22.580758 -67.622114 -42.193119 71.027231 39.882636 20.839422 3.240697 7818 7818 
-14.888316 -71.503006 11.080014 -51.506289 78.214019 65.969774 48.223142 -65.589337 -31.341774 18.344052 -62.118005 -55.035832 71.817005 37.145669 20.492457 0.696427 7819 7819 
-11.506217 13.802889 -19.338991 -17.247018 41.159387 18.317991 13.992222 -39.180264 4.909646 6.087311 -11.882517 1.947270 45.335968 4.168333 -21.937611 -28.628399 7820 7820 
-14.969290 55.463151 -37.749061 21.476885 1.274068 -27.982870 7.312734 -4.825617 15.044651 -6.983432 44.400277 36.795304 24.017490 -9.715723 -44.510951 -59.047616 7821 7821 
-12.908859 23.403904 -39.535039 44.176352 1.971940 -33.465026 19.150610 -2.793883 -37.944874 -4.007164 66.193389 70.823198 13.159137 -8.267923 -42.510395 -57.445369 7822 7822 
8.413539 9.440503 -23.507048 7.217652 22.302772 -13.820207 17.369175 -27.416386 -56.642780 15.549210 35.292920 62.774107 6.441775 -5.687368 -39.632383 -18.095480 7823 7823 
30.654531 11.040373 -9.010291 -47.713610 12.593052 -1.227218 0.531522 3.131641 -18.617536 57.784809 -13.603770 21.725786 -28.336452 -17.246358 -32.234221 30.527742 7824 7824 
57.395773 8.482146 18.403522 -78.278154 -21.829912 -9.990520 3.316529 22.500616 29.605836 103.348294 -48.850084 -14.480804 -57.974695 -39.773052 -16.706003 44.830508 7825 7825 
61.293584 -0.437338 18.031649 -127.680491 -15.992829 18.267050 38.609284 7.909092 26.334439 65.825623 -81.596289 -6.133667 -47.197956 -24.058400 21.421889 45.404360 7826 7826 
20.768782 -18.075814 -17.905490 -143.249056 15.792363 60.460991 58.611719 23.596505 -0.856915 1.480983 -92.097857 -14.701434 -15.970823 12.784806 62.655954 46.705287 7827 7827 
-3.960082 -2.227782 -37.788348 -120.564215 29.294369 70.835269 26.780344 37.630445 19.417082 -78.991398 -66.630862 -24.958083 1.044274 30.190409 65.025382 54.903195 7828 7828 
-13.010179 14.198010 -56.640250 -84.146772 36.591945 63.476050 4.799044 34.732153 51.161693 -124.602151 -32.407110 -23.458366 15.285347 30.731142 43.888076 39.401369 7829 7829 
-9.132693 23.302265 -27.043143 -26.924237 13.762172 25.699288 -11.042768 11.379116 56.836420 -62.446642 -6.503072 -51.311805 9.594541 14.885299 14.190466 24.754793 7830 7830 
-3.674671 24.900519 18.490032 47.521793 -23.156213 -21.041548 -37.890727 -5.149185 -17.168864 29.191238 28.918934 -50.746459 -17.320102 -7.380135 -12.971469 47.476857 7831 7831 
-11.506316 29.762097 26.663636 66.324979 -55.081367 -53.866117 -28.048630 25.751719 -78.940305 85.228607 55.875339 -36.930594 -26.598988 -22.299128 -14.361744 38.026813 7832 7832 
-19.941202 24.255789 23.040253 17.825848 -55.810512 -42.153903 -4.459977 57.243704 -22.109134 51.820322 36.912210 -58.048152 -19.170569 -7.918278 7.360176 11.153426 7833 7833 
-27.358557 -7.270527 -0.816350 21.353688 -19.279138 -0.558896 8.575357 25.354424 48.554201 2.546577 -3.276646 -53.185276 -3.954475 10.089103 5.410603 -6.184087 7834 7834 
-0.464126 -42.065419 -22.952697 50.509308 1.881750 20.928673 6.567721 -14.405210 46.098369 -5.416320 -10.556412 -37.063450 7.420248 21.479420 -10.837106 -11.124749 7835 7835 
32.137828 -85.772870 27.890748 25.079747 9.450970 15.444522 4.379079 -28.610024 42.672074 21.444027 -46.976007 -24.349765 3.013577 16.783806 -12.916912 0.329198 7836 7836 
14.002671 -68.419486 139.365881 -19.614345 -4.164076 -19.862719 -0.330066 -40.977860 14.369244 39.754301 -32.036619 74.416879 -15.206297 -22.254326 -40.097614 -18.945568 7837 7837 
-19.931146 -14.833514 127.827128 -15.118860 -11.415557 -37.963710 9.681453 -38.245794 -35.074328 9.407479 65.932893 204.504471 -18.056868 -60.275683 -79.308929 -87.129035 7838 7838 
-17.184508 -7.797735 37.448701 60.874141 -13.365530 -39.331304 9.398730 -30.042494 -33.688493 -42.030092 72.509550 273.570815 -5.286541 -65.641073 -81.587365 -117.846801 7839 7839 
-4.600129 -12.765981 15.460437 164.056733 -49.269783 -72.813319 -19.632299 -20.435660 -3.385966 -46.266386 73.360080 148.075780 -5.259012 -44.673552 -47.170589 -74.680354 7840 7840 
-6.425638 -2.279617 -16.625688 221.190096 -77.618881 -103.409091 -41.486799 26.655618 16.155183 -48.347431 126.051415 -5.385532 -10.270715 -27.754578 -15.436121 -35.012222 7841 7841 
15.957230 21.177041 -55.422649 137.162389 -56.326922 -75.746987 -49.567643 62.767542 -9.909377 -62.430813 85.752928 -17.536016 0.539359 -0.169629 0.428249 3.325299 7842 7842 
17.073416 25.922583 -44.155855 34.188831 -18.305984 -24.129207 -2.621337 12.027554 -11.510781 40.652350 19.382943 -110.471420 8.056084 19.900572 2.546520 31.443731 7843 7843 
-2.935010 20.568284 -17.047511 -27.950669 1.231195 12.491652 36.216784 -22.574726 -22.073710 114.117726 -16.888830 -114.024792 4.497094 22.531249 18.541468 -6.700206 7844 7844 
-1.646749 24.946748 16.863037 -29.988253 8.543406 36.022170 -19.976130 -34.764228 -59.290813 67.106049 -47.391793 -13.300429 3.968707 44.505857 69.534151 -65.131729 7845 7845 
-2.646699 12.272607 23.061152 -36.008724 32.534095 59.031447 -67.943042 -20.300835 -69.967712 -24.799676 -59.560569 68.594809 16.916253 50.771054 91.234390 -73.188549 7846 7846 
-28.155005 -28.212169 -19.192422 -103.256247 82.819806 93.488262 -1.839181 4.346955 -69.097990 -53.635808 -101.176595 79.633292 63.569943 51.800776 72.233277 -43.326895 7847 7847 
-63.561758 -55.377108 -26.877357 -59.569021 95.539310 89.539536 51.387541 -31.081144 -53.235183 -51.476997 -68.242855 -12.247853 89.445937 52.891941 47.449017 -4.584007 7848 7848 
-55.668963 -40.744862 -17.699062 -14.500409 66.664591 49.132776 15.548099 -2.732171 -11.797724 -66.395221 36.711167 -43.450912 43.058067 15.874142 15.502209 10.498272 7849 7849 
-69.319391 -8.108936 -6.117981 33.985316 24.371707 7.724061 -33.773806 51.239031 37.486519 -65.383511 95.911999 -1.409415 -19.707991 -18.057457 -49.695008 20.854863 7850 7850 
-31.061668 15.452788 10.733096 54.329901 -1.249679 -8.020231 -20.520881 -19.663326 51.042458 -32.510527 74.348838 16.732165 -52.340931 -31.119275 -96.177573 70.024846 7851 7851 
70.383422 24.245026 -24.671461 -23.857444 17.923139 25.852684 27.561110 -117.436477 38.834809 31.870188 -25.942519 -50.986355 -65.525697 -27.598203 -36.751753 136.099529 7852 7852 
99.661484 36.577145 -49.083261 -65.338020 21.159552 35.757399 -24.055055 -54.679244 -35.101225 -13.569560 -63.691840 -63.252383 -63.254622 -5.619784 90.607104 153.882310 7853 7853 
121.888423 34.336995 -19.776561 -110.269267 4.742446 16.772724 -112.573739 64.878979 -81.681039 -68.140960 -76.952785 -85.252921 -36.933759 31.309080 192.613074 125.039309 7854 7854 
105.838509 40.812322 1.509844 -116.566461 -12.004475 2.614428 -132.910059 110.705892 -13.632540 -85.414906 -103.480448 -99.422112 -16.207718 50.086630 197.207482 70.863612 7855 7855 
53.725934 52.973761 9.606696 -17.043887 -48.287468 -31.350192 -112.239832 92.614989 27.115839 -47.106736 -81.784801 -77.834856 -1.781572 36.594825 125.589304 19.207998 7856 7856 
21.133876 38.664751 -7.330178 86.156423 -70.509147 -62.894937 -66.571942 61.351154 7.212599 38.170046 -48.987629 -89.609004 26.422844 25.284296 48.939772 -7.432923 7857 7857 
-8.740828 11.820564 -55.581514 58.559579 -53.388287 -57.982558 -3.205937 108.518982 1.494857 -2.789222 -13.737099 -14.948055 50.070758 22.100110 14.205043 -56.396392 7858 7858 
-5.084306 -0.851759 -55.223649 -18.169447 -30.237366 -33.185616 20.356832 122.395310 30.397740 -96.803887 14.141985 53.074372 43.897604 14.956940 -11.164762 -48.499993 7859 7859 
-1.896432 16.261131 -37.763623 -86.811199 -6.801606 -9.121265 41.794129 84.338865 52.763239 -71.175819 28.015773 55.835387 20.922833 -7.497513 -57.523587 -21.340314 7860 7860 
-5.282756 9.998178 -49.144600 -114.773781 9.875685 -3.532134 80.175070 72.684338 46.907497 45.924674 12.335478 42.345304 13.399638 -32.461151 -93.800456 -34.650983 7861 7861 
-1.553482 -12.266134 -31.750909 -9.278743 -16.557909 -31.058766 72.535153 29.930790 24.766997 129.129924 23.221891 -32.041347 3.257799 -43.989931 -98.893203 -5.452129 7862 7862 
13.252528 -31.176717 -13.614949 46.394127 -38.152880 -41.156489 58.559242 5.895140 -17.482440 167.461599 31.690392 -75.258625 2.439385 -28.172690 -80.848718 0.171097 7863 7863 
11.596345 -37.837332 -38.084219 73.065163 -29.007356 -28.825699 43.243556 5.849542 -24.340314 95.077366 14.547307 -3.108614 10.284352 -7.716458 -74.211536 -10.532102 7864 7864 
13.153445 -23.925526 -46.921285 55.886342 -13.651956 -15.842849 59.674000 -28.372172 -12.224709 39.333461 16.123249 59.764718 8.060961 -10.072842 -72.936725 -28.048114 7865 7865 
31.701372 -15.458477 -6.477520 -37.549907 6.526997 -0.922308 88.782097 -66.602254 -17.416704 81.818783 15.548094 60.776172 8.725073 -13.117502 -68.190190 -68.143726 7866 7866 
-4.071283 -10.978335 47.218020 -40.696467 18.491663 10.300315 74.212133 -94.476046 3.200367 95.467945 20.393736 9.972454 -8.645159 -16.210087 -57.372582 -46.806674 7867 7867 
-41.130736 11.797255 70.621399 -1.252295 18.932117 13.110751 36.815085 -108.893577 37.918892 77.225753 39.762653 12.659139 -49.669852 -43.646251 -69.220921 -5.029412 7868 7868 
-54.823436 35.250375 76.777658 38.584985 13.125741 8.810855 8.410198 -126.136376 49.173279 33.831405 52.806224 44.369708 -56.160941 -48.931375 -81.136288 6.047988 7869 7869 
-40.612290 12.355184 95.600390 72.141425 -10.694892 -8.311858 -2.963132 -117.514826 60.637101 3.206244 25.039895 -13.106259 -28.421942 -19.420667 -40.308455 12.374084 7870 7870 
-42.139060 -31.223119 79.159907 54.538920 -9.713732 0.723601 4.642884 -55.989401 36.822085 -16.164640 -13.764311 -42.902346 6.049865 16.854844 12.996277 0.108225 7871 7871 
-53.530607 -38.136692 39.217698 10.683549 0.108539 9.939254 24.171095 7.547164 -21.846099 -8.800764 4.565241 8.875452 19.440321 22.652038 13.501670 -38.387858 7872 7872 
-30.055428 4.231800 20.048462 -6.792934 -22.365617 -21.676465 23.650568 32.959614 26.827202 -22.208471 66.845701 85.432095 -26.568400 -32.801478 -43.395355 -54.131294 7873 7873 
-27.776483 33.758006 25.852047 -6.706265 -16.854872 -26.663915 14.969165 3.422318 89.416283 -54.509613 91.561952 90.508877 -40.123485 -45.940715 -73.338287 -57.575012 7874 7874 
-20.817901 41.124537 53.301009 6.946510 -12.255575 -34.423181 -4.168817 -29.706583 70.245305 -36.045121 118.252608 96.769252 -27.928323 -32.399016 -76.869336 -112.025370 7875 7875 
-62.389407 16.919913 29.698573 20.054372 20.270388 -5.794056 22.570942 -41.330725 41.706296 -20.729618 86.216486 126.612427 1.781388 -13.075032 -69.090738 -153.421209 7876 7876 
-95.957737 -25.788030 -22.643277 47.192787 55.567019 35.608276 59.255453 -53.234492 -15.258942 16.051204 1.430982 64.154939 44.324513 22.510930 -22.578571 -110.635055 7877 7877 
-67.223840 -13.480298 -34.057251 43.296238 40.141915 45.814491 43.867050 -58.358305 -86.403516 52.500836 -9.862097 -25.246581 31.015255 25.203803 31.511079 -18.718779 7878 7878 
-32.547940 -13.884956 -22.080619 7.614283 41.743873 70.909179 -3.532693 -48.221127 -79.469658 32.451855 -28.323252 -94.945266 15.922605 28.108628 53.639106 72.615981 7879 7879 
25.539400 -47.226844 -11.565732 15.273975 55.313209 81.545508 -63.860314 -55.019202 -62.190850 -27.404794 -63.573924 -72.814511 8.817109 20.898294 54.204819 142.063857 7880 7880 
32.962040 -48.562781 6.659782 20.554644 68.830315 88.929610 -101.931619 -67.441991 -76.922852 -108.304820 -88.909787 -36.393393 14.828713 23.643306 79.924875 192.133958 7881 7881 
-28.950529 -29.435552 24.418704 19.883311 52.072921 82.188564 -102.106504 -18.070915 -31.030205 -140.133766 -103.459852 -61.787659 13.942007 30.732189 105.161528 186.575758 7882 7882 
-33.452671 -8.585949 0.330302 -22.218365 2.099866 39.866669 -58.212256 80.172404 6.014084 -117.770446 -76.305722 -59.597264 -15.658159 4.494205 105.396416 153.426886 7883 7883 
23.741982 10.991506 -13.775066 -77.861471 -34.832277 -14.603601 -19.977963 126.316889 6.886595 -86.028839 -27.319697 -43.276796 -21.164829 -8.753980 83.525625 96.131921 7884 7884 
20.030015 -1.937673 -11.525777 -88.905032 0.606680 -9.196927 -5.453940 96.382656 -6.825399 -80.115358 -68.434648 -22.993605 50.173020 43.129335 61.302062 23.764593 7885 7885 
14.209589 4.740898 -12.141808 -69.751560 23.392239 -5.396486 -23.227683 68.174810 -6.350265 -103.032361 -80.481972 10.448797 79.798163 70.710114 40.775084 -11.867560 7886 7886 
42.537430 49.224519 8.790451 -37.784752 -13.887092 -44.008276 -22.875764 18.003484 18.155810 11.145946 -8.339878 9.745925 15.148520 21.831137 -13.126332 -54.561128 7887 7887 
54.472357 45.550463 4.987513 -27.851118 -23.589030 -45.866874 19.901836 -27.605147 11.832227 176.143765 -12.424504 -0.025226 -12.283454 -1.173966 -55.637679 -106.431162 7888 7888 
52.698118 25.808661 1.000923 12.874337 -32.207888 -42.571108 19.396860 -36.999903 -1.235860 156.929854 19.523587 31.641276 -25.587243 -9.103944 -47.607300 -124.560371 7889 7889 
39.540647 2.181683 -18.545609 19.678231 -11.952353 -22.487164 18.481936 -26.897372 -2.591079 44.868173 26.897006 9.016373 -10.756830 3.046020 3.785594 -74.265257 7890 7890 
19.138437 -23.731339 -45.297539 6.312969 14.417061 -0.330448 11.816223 17.674636 -6.657432 -62.046365 7.735742 -11.788262 7.452934 17.443695 52.398820 -4.539132 7891 7891 
3.282144 -42.781278 -38.408356 20.505735 4.058452 -9.865248 0.206584 63.001967 -15.694835 -90.690317 16.665314 -30.565763 -3.586375 0.638879 68.082661 55.150436 7892 7892 
-3.151515 -55.465251 -39.554524 7.347186 1.908399 -0.870611 34.923173 54.863144 -0.767461 -39.285038 5.842239 -89.734153 3.833199 -5.886316 53.604515 72.393014 7893 7893 
-6.226162 -39.927803 -10.850647 11.685496 8.909159 14.469212 4.847298 17.093447 8.321371 -13.787924 21.599185 -76.986285 8.410906 -6.204622 24.995842 33.651527 7894 7894 
-0.312866 -23.707009 11.067652 24.987492 11.562805 10.053238 -41.777381 8.126070 -15.427042 -5.544270 17.030761 27.847120 9.636001 -10.987429 -7.799344 -14.755797 7895 7895 
-4.551067 9.419494 -6.326083 18.420009 0.188281 -2.341573 -16.610059 1.800998 -12.359051 20.762029 42.198563 107.392429 -15.285643 -41.514489 -48.276385 -52.917454 7896 7896 
17.972882 48.642044 -60.816217 -11.445425 -8.378234 -2.561637 10.621751 5.964837 32.052382 56.421611 -13.219655 74.519821 -37.619166 -53.805374 -46.021690 -12.327929 7897 7897 
36.184244 68.248970 -76.216273 -27.589494 -4.771638 11.303389 38.539846 -45.699044 62.945373 113.940202 -122.512605 -18.779708 -35.048830 -37.337899 -12.459335 49.252802 7898 7898 
4.862679 56.829820 -3.893835 -32.529422 6.462309 14.892604 59.029179 -105.653334 39.095432 165.533136 -79.209599 -110.397824 -25.113991 -27.460220 -9.028208 46.581275 7899 7899 
3.488785 38.926045 35.056432 -54.744893 -3.057064 5.440274 44.016798 -69.126377 3.857613 131.715408 -5.464126 -22.913572 -27.231005 -32.258660 -50.457905 2.752246 7900 7900 
11.753333 33.188192 45.328761 -20.210254 -26.662644 -21.176000 25.350193 -47.571583 -16.606160 68.923970 39.499100 114.732000 -21.377412 -36.132213 -100.227786 -48.811499 7901 7901 
24.178997 18.983791 38.077526 14.053989 -37.631054 -47.826052 10.157322 -19.994518 -16.004974 12.966512 67.096992 99.868442 18.409624 -17.671050 -101.124141 -63.541405 7902 7902 
25.575158 6.922969 25.438195 1.926807 -27.382070 -40.770924 -22.529265 30.819131 -2.507174 -70.821463 46.945632 33.785474 51.935980 19.455182 -42.724826 -36.068804 7903 7903 
4.252395 -14.893183 18.627996 32.345949 -9.376748 -34.578104 -57.286908 60.908604 -19.745140 -97.294265 27.279925 -11.222957 57.521826 41.250252 11.785481 -9.575122 7904 7904 
40.154944 -22.190189 -19.801225 12.809397 -35.361499 -50.067936 -51.582769 126.039279 -19.831562 -62.503264 32.862417 -25.821618 14.465036 7.938486 45.156282 7.734223 7905 7905 
76.962081 -9.124116 -36.255453 -19.853448 -72.319090 -59.640544 -22.464177 142.694746 -23.198777 -24.387952 55.625547 -52.955571 -25.108786 -10.863996 66.882830 14.006706 7906 7906 
59.852914 -15.611701 -36.668375 -8.374119 -49.804998 -25.338870 -20.814138 96.759287 -44.296551 -23.562736 16.309946 -45.375450 -20.834473 19.859514 75.527656 22.372093 7907 7907 
13.484920 -41.125965 -50.024115 -18.824094 0.071630 36.230689 -4.233913 64.420846 -20.176821 -51.661341 -92.245438 -44.268843 6.603685 58.904484 97.824847 45.019427 7908 7908 
-26.869047 -39.133209 13.514103 28.202331 5.641376 34.408550 -23.091017 7.326912 21.798631 -29.221992 -100.031048 -80.510734 17.646054 59.336197 80.565662 30.417231 7909 7909 
-48.234733 -3.668112 96.792911 45.280561 -9.418674 3.275037 -59.643234 -24.383755 57.390843 -5.872385 -12.736818 -66.627561 -1.729194 23.157957 17.928572 -11.511413 7910 7910 
-37.586590 43.181630 73.725956 -88.859485 -0.843931 7.977643 -15.782598 18.187375 93.083501 -23.945577 27.713721 26.045777 -28.312679 -15.949222 -50.510882 -28.124639 7911 7911 
1.856422 52.337997 31.625730 -210.269613 36.800305 23.408655 8.169214 56.071290 61.753764 -24.652046 19.213627 74.252094 -13.407713 -11.724460 -66.280059 -39.155207 7912 7912 
25.939035 -8.961345 0.793025 -171.303979 63.931536 40.883253 36.354576 12.363900 -74.984782 35.153091 -29.924173 42.741481 48.692984 41.132518 -13.099529 -49.711591 7913 7913 
-21.554854 -31.451779 -31.771277 4.382814 36.350741 24.929480 67.332449 -48.217575 -97.970618 59.812064 5.273947 27.262577 36.852743 24.178397 -7.320559 -48.088551 7914 7914 
-72.708312 -13.461879 -31.039482 194.770687 0.218226 -19.141582 27.942423 -86.580082 -41.050576 -6.002201 129.456314 56.324964 -16.685101 -34.742379 -32.743633 -54.557389 7915 7915 
-62.511292 -36.138571 -16.148092 299.089534 -26.588419 -38.269615 -13.662948 -105.770598 -53.302914 -53.960643 116.454514 118.783132 -38.533461 -43.367985 -10.710038 -35.362605 7916 7916 
-62.624463 -77.249238 29.196000 337.629628 -45.473751 -30.736751 -46.179171 -104.562253 -13.103703 -63.323180 83.301466 33.998733 -45.380822 -23.197420 22.110698 5.594228 7917 7917 
-24.467914 -78.547769 57.959335 207.969010 -12.580417 3.403328 -65.353900 -88.381674 17.709185 -24.811268 26.155824 -90.306705 -24.348533 10.287153 40.350689 44.963654 7918 7918 
13.801943 -19.795410 21.145225 5.666050 20.027431 32.330610 -43.305042 -29.870808 27.011612 34.763963 -55.881478 -123.422089 -10.200773 28.287514 44.995720 54.445531 7919 7919 
13.604261 29.056680 -5.800587 -25.273022 5.266661 10.715820 -32.742556 5.172743 16.304114 16.326544 0.997243 -50.911427 -14.809743 9.894256 21.236157 0.962856 7920 7920 
14.213192 32.129308 -12.464017 17.467995 -28.226917 -29.173811 -20.436630 26.490882 1.198306 -8.355564 29.455442 62.078827 -26.751806 -19.358007 -4.817975 -33.449224 7921 7921 
9.553981 22.547003 -14.324480 38.688139 -49.854734 -44.755712 11.569300 26.576502 4.894219 2.087769 47.329781 67.954081 -36.825905 -38.785118 -14.176968 -32.477859 7922 7922 
0.673874 20.622908 -3.938966 0.197232 -11.283148 -4.507071 27.852432 -29.617260 -5.191618 -19.480438 26.126730 94.416315 -20.809785 -29.894749 -20.375842 -24.790613 7923 7923 
-37.352243 22.333058 19.482200 -22.402849 56.893053 63.021604 55.826628 -157.801452 11.060056 -26.353290 -49.000227 76.787773 10.592387 -1.173245 -30.541345 8.627890 7924 7924 
-63.665766 18.662929 49.679890 5.098240 79.631666 74.377682 61.083487 -224.868128 23.679726 -9.891534 -32.461403 8.132257 19.295393 2.611082 -51.025443 39.659921 7925 7925 
-60.134942 13.885210 38.060694 -24.537862 54.637374 46.709914 38.606644 -107.227032 34.054608 -24.576976 17.679687 -16.817029 14.085914 -0.718942 -64.135913 40.428652 7926 7926 
-47.026251 16.680397 30.103651 -41.343437 12.479338 9.779410 -0.610641 19.937533 26.791215 -43.613120 43.132546 -23.226565 9.522873 4.894260 -52.549309 35.048101 7927 7927 
-19.170510 15.790171 37.062698 -35.807890 -22.331705 -29.292821 -29.204184 82.954241 -2.541863 12.380958 30.552558 -14.687379 -4.931421 -4.516817 -34.719622 18.463587 7928 7928 
31.714160 -1.351592 -10.661010 -85.314181 -15.848103 -23.863236 -0.554360 105.878322 -38.207683 92.236956 -21.534179 -1.668854 -1.288039 -8.919224 -10.502228 -10.116749 7929 7929 
74.149025 -13.635766 -69.285492 -131.514213 -11.234081 -9.381458 23.644526 137.257459 -64.105060 103.677837 -51.633984 9.731994 11.065416 -2.287968 20.562364 -27.010599 7930 7930 
88.366794 -9.095243 -74.851089 -97.270598 -38.340387 -31.143420 4.431448 157.902496 -55.115452 56.933793 -15.919949 20.879902 23.662942 3.981855 26.063575 -60.486665 7931 7931 
72.755156 -15.368236 -75.781447 -64.480029 -43.076851 -35.575601 11.477269 150.049738 -6.763493 -4.082989 -2.941179 32.442670 36.102912 7.464296 0.090891 -62.313109 7932 7932 
20.731467 -23.544007 -85.356454 -47.450066 -19.790630 -12.583721 50.837002 117.156409 48.172547 -15.658756 -14.020246 21.447828 20.796780 -5.264172 -44.860244 -10.613736 7933 7933 
-20.933947 -15.112710 -51.253855 -29.945660 10.204637 -1.617972 61.184328 47.475178 47.786405 13.063969 -32.884760 3.069050 12.022185 -12.933075 -51.233537 21.109763 7934 7934 
-36.938728 -21.314125 -14.850920 -56.616358 32.838460 13.415788 67.335255 16.130628 -2.034344 43.898625 -81.377436 -45.036886 28.464064 11.423972 5.908203 38.753803 7935 7935 
-7.664110 8.960757 3.495339 -129.347616 37.732065 26.187445 23.523476 37.112644 -0.376686 24.202965 -110.678417 -101.349420 30.107777 30.127484 57.469960 70.496336 7936 7936 
39.237659 75.130338 18.400551 -159.347701 27.415806 19.088317 -56.722551 36.797581 16.370490 -13.782198 -72.705411 -81.379521 18.606749 30.785234 41.670648 60.434009 7937 7937 
42.200670 72.428452 38.920277 -55.987545 -4.785090 -8.952530 -85.496568 1.672336 12.962310 5.590927 4.612066 -16.200349 -5.053312 12.585898 -23.341347 8.843806 7938 7938 
50.653744 45.695748 32.953353 3.371475 -34.081074 -32.153031 -65.403744 -1.036472 51.773102 34.851902 10.699480 -8.857702 -33.119426 -15.025621 -34.661676 -5.660058 7939 7939 
43.914678 36.656232 4.007623 -7.522305 -19.495160 -16.405076 -16.045042 -25.110949 60.556301 49.960919 -39.363930 -70.458588 -21.601189 -4.449081 14.502470 10.853098 7940 7940 
3.444708 23.760411 23.658303 5.996023 4.053543 -6.799874 4.563283 -58.676396 38.654661 26.404339 -34.963344 -88.458202 -8.889581 -1.686753 45.832369 23.106510 7941 7941 
-17.264206 13.045205 29.497846 -13.921159 25.910186 6.215578 3.935383 -47.418833 33.573821 -47.446100 -19.701381 -52.514185 -6.083563 -1.878579 71.886948 22.163038 7942 7942 
-41.675611 0.177000 12.326194 -22.760972 46.231581 36.158870 9.166408 -39.623470 41.859637 -102.040492 -14.906830 -0.820331 12.295521 21.075824 68.990362 -26.453692 7943 7943 
-82.769354 1.081880 8.828126 -14.516071 50.022868 53.847590 10.796760 -27.291798 61.974816 -86.455476 15.502530 22.890712 21.350610 25.252198 24.073698 -84.589088 7944 7944 
-106.310355 -4.705425 0.144663 2.569434 46.472098 57.526988 25.480488 -21.177893 62.345776 -25.334504 39.864795 -9.953539 14.137955 18.272075 -9.092659 -90.239900 7945 7945 
-86.517941 -29.839465 13.497435 48.547525 38.589254 43.139562 31.356429 -58.772799 21.825896 36.990767 33.404933 -8.969324 2.035044 -2.897789 -35.181275 -47.208252 7946 7946 
-19.315027 -42.180059 33.698995 90.264738 8.116183 10.893878 17.655310 -99.134018 -83.724188 30.534886 29.295940 37.302886 -10.099029 -29.312210 -26.767139 52.768854 7947 7947 
59.308671 -32.616621 23.029567 86.492011 -40.132406 -20.073388 13.551505 -89.559340 -217.997606 25.919422 64.693973 60.796364 -16.278726 -25.491173 -0.262963 108.620709 7948 7948 
109.777756 -26.070779 -44.267305 15.649172 -67.483099 -27.067447 21.370238 18.091464 -207.514600 14.010409 35.743815 26.802055 -25.983622 -13.781785 24.483108 146.240620 7949 7949 
87.300734 -21.725056 -72.853772 -0.575651 -50.351406 -19.484195 16.026638 61.662707 -54.026187 -56.972665 -30.311591 -14.301477 -42.345981 -24.535240 45.212464 177.280676 7950 7950 
-3.652453 -27.488338 -21.619851 75.563944 10.858593 -0.552535 1.894329 -35.003689 44.105414 -25.974256 -44.448218 -15.078123 -12.440132 -16.775777 31.255753 39.355338 7951 7951 
-34.099737 -33.877030 0.089368 118.413589 31.428476 0.950846 -28.704470 -54.201042 47.371637 18.287167 -19.156533 12.453327 29.075500 8.137376 9.747189 -105.915663 7952 7952 
-18.639864 -16.581454 -5.486177 112.051400 29.958811 -8.465967 -62.636250 -30.200499 42.726410 10.094340 10.039192 42.837187 48.771199 12.188698 -30.397827 -136.259199 7953 7953 
-8.094527 -16.475830 -19.494280 77.902974 30.609468 -9.888439 -41.136923 -13.422444 28.546317 11.844670 25.266170 81.906101 47.246363 -4.009058 -79.163118 -111.637445 7954 7954 
-21.998004 -28.392471 -20.725817 8.364929 23.381143 3.540526 17.931741 17.897953 7.327611 26.791942 -4.320303 31.019404 20.212996 -14.920378 -96.796924 30.685652 7955 7955 
-49.058627 -35.558653 -4.503446 -32.702905 46.339771 30.892418 46.784474 -2.193034 -7.962831 1.161431 -40.345993 -52.395341 27.527567 9.997715 -66.671683 128.689135 7956 7956 
-3.329438 -31.422979 13.969716 -42.648772 45.614079 25.198251 29.700289 -37.081146 -28.556506 -83.218890 5.511412 -12.720971 44.450876 38.032482 -3.466131 39.967729 7957 7957 
8.557908 -11.466033 10.916618 -40.878374 10.592668 -2.465384 9.663473 15.079123 6.193632 -145.668143 32.524877 2.438792 19.552846 31.774745 46.398971 6.784281 7958 7958 
3.187496 8.134958 -9.538974 -14.031581 -35.151584 -32.531046 14.876221 65.054510 14.700914 -85.166843 32.578595 -22.063664 -28.747314 -3.483999 81.236604 10.945706 7959 7959 
13.998962 18.883283 -3.004321 7.915734 -66.619932 -37.142285 18.474938 47.493622 -6.103574 57.283858 30.989932 -47.601519 -71.526709 -39.923167 100.235468 -23.354289 7960 7960 
18.497499 30.238280 -8.674098 3.213740 -75.707390 -8.274192 -22.657641 63.363802 13.623244 91.443392 -10.116275 -33.113727 -94.170604 -34.122559 88.120404 -21.663876 7961 7961 
43.646161 50.543659 0.795246 -7.799439 -70.434464 -10.782097 -55.876331 49.907264 18.047637 102.273164 -41.253059 33.772602 -90.526393 -24.510206 18.570470 -16.374216 7962 7962 
15.256579 50.032026 64.694464 30.291786 -44.934831 -32.211282 -62.722374 -20.406368 3.506013 103.601455 -24.920849 57.703174 -63.673939 -27.354105 -65.304425 16.442676 7963 7963 
-2.144779 17.369795 63.768652 21.398992 -0.533760 -6.205251 -62.921941 -30.731709 -36.358408 63.370296 -21.249892 42.775739 -6.936090 10.282108 -60.428436 8.544682 7964 7964 
24.652051 -7.678078 10.650806 -15.160039 24.327216 5.586245 -42.958826 0.580625 -46.057014 44.463902 -25.762249 12.327185 29.289090 23.281394 -28.903056 -8.639253 7965 7965 
38.391959 -11.566087 -13.279516 -17.183056 14.935242 -10.958630 -24.689448 24.349537 7.654309 7.812704 -35.300264 0.022987 30.681286 17.058764 -2.571506 -25.358281 7966 7966 
19.362242 -12.857004 -44.109279 -39.460222 -2.149242 -11.571633 14.537847 76.247292 83.594071 -49.204546 -24.508611 -7.903390 28.676404 21.005765 19.300163 -70.959857 7967 7967 
-16.001054 -2.251410 -35.401794 -28.391196 -27.232876 -20.547724 35.287370 94.538683 102.773849 -97.386526 53.833217 23.941628 11.919868 5.391612 -11.061878 -89.411770 7968 7968 
-21.839326 27.417658 -10.015932 -13.350904 -40.922107 -10.363903 5.955836 63.118677 57.223625 -127.580249 75.087789 55.681961 12.401037 12.635521 -5.939652 -79.510031 7969 7969 
-21.532661 49.537648 18.938213 8.941919 -35.364395 12.708274 -37.792636 4.563638 13.323655 -129.408159 42.833640 19.571533 6.949529 19.004210 33.130889 -5.405298 7970 7970 
-38.556622 35.104288 56.566065 56.595762 -22.927992 17.790255 -51.031132 -53.540624 -23.140887 -76.938668 16.492057 -18.956168 -2.442021 13.178851 40.132460 51.674376 7971 7971 
-76.577876 37.545370 48.750913 56.821330 3.276366 20.294137 -22.293906 -67.816333 -1.558040 -80.224613 33.151329 -6.235892 -2.134622 2.771041 21.511839 32.718958 7972 7972 
-87.414104 47.735387 30.360767 20.738722 29.116255 20.238496 -10.575698 -50.199826 31.824365 -109.145304 60.754006 24.601715 -14.295813 -17.083403 4.374638 18.969796 7973 7973 
-49.717387 28.039898 21.953878 -16.118455 27.014519 17.154420 1.081909 -29.408782 -16.451964 -48.087640 55.467102 3.461484 -3.534740 -0.790745 14.369018 -4.432515 7974 7974 
-4.223534 14.700321 31.815881 -45.504567 9.193762 2.610324 2.349242 -10.941429 -104.805357 16.107251 34.391552 -10.021939 24.880230 29.905509 26.528244 -16.985490 7975 7975 
81.362887 -14.423520 68.889298 -7.315918 -40.724572 -58.403460 -21.455063 -7.929652 -128.342182 114.297300 -22.071778 -22.587884 28.099184 10.471393 3.634476 16.499492 7976 7976 
133.628919 -49.593348 27.781733 -5.668605 -40.893938 -65.137968 12.144159 -12.260951 -13.449686 166.352143 -83.009842 -71.123737 2.827645 -18.252438 -34.478481 51.134397 7977 7977 
87.229017 -41.679421 -42.409612 -64.599418 17.228884 -8.930032 55.497771 -2.337187 84.477226 103.312132 -86.342222 -84.312064 -4.735166 -19.826326 -50.710969 58.137390 7978 7978 
19.597448 -18.263132 -22.916707 -140.816944 42.162032 19.975799 83.776696 16.484807 63.257598 69.522376 -55.973908 -51.211017 6.120454 -14.950366 -49.434920 32.669783 7979 7979 
-23.743836 -22.076831 -27.841781 -195.913955 56.906807 56.375061 115.667548 40.626987 26.400020 39.489161 -48.533848 -4.762151 23.222027 3.912082 -26.071503 -13.655789 7980 7980 
-23.784186 -25.904077 -37.607601 -40.161957 35.011702 49.660353 31.390980 11.394786 -10.571904 10.680836 27.885445 36.058818 29.639759 8.859572 -3.595997 -98.956529 7981 7981 
-11.010970 -48.011878 -58.791573 121.595730 29.746840 37.370350 -51.115735 -19.782764 -23.894971 34.391192 49.507093 -26.072201 43.123012 34.605638 28.040486 -139.700249 7982 7982 
6.796591 -76.323337 -81.933168 188.340769 25.550422 23.529696 -45.109770 -40.851203 -26.541756 90.405903 -1.942256 -128.139361 65.923363 64.761564 49.032551 -113.500008 7983 7983 
25.022370 -54.190241 -43.896618 202.994285 -27.298701 -32.824375 -42.492055 -27.314666 -49.848169 87.107217 26.013701 -26.779342 22.584583 17.037026 0.817185 -76.932201 7984 7984 
25.752620 -25.514591 -31.419743 84.063867 -29.884759 -27.425653 -6.277739 10.705998 -60.880825 39.204605 8.863943 76.089008 -13.399020 -13.628800 -34.590886 -1.658026 7985 7985 
21.246250 1.918163 -33.177054 -39.577508 7.969970 11.500060 35.009067 -4.888949 -35.401278 20.117838 -13.800485 59.477705 -35.829930 -23.119472 -43.000042 71.555663 7986 7986 
-13.981757 24.699911 -13.651007 -47.502658 29.123695 19.261188 59.152755 -57.102128 12.340241 -15.246785 34.955921 59.111247 -67.670580 -57.888248 -64.224642 98.622846 7987 7987 
-69.295235 40.684396 39.535128 85.677662 52.286657 28.335191 58.775624 -235.999423 34.757291 -87.922759 103.131146 102.247266 -65.478032 -75.006477 -87.533016 75.804581 7988 7988 
-107.097700 28.998005 67.074613 161.024752 67.704389 33.033168 54.893713 -305.630940 17.189272 -102.494553 125.768887 141.742802 -44.418156 -65.328385 -78.319674 5.859806 7989 7989 
-98.451796 2.384016 49.565129 98.830909 24.448276 -6.998215 34.647820 -104.426139 -21.046706 -42.715864 62.786011 100.886678 -5.193408 -29.296574 -20.854291 -44.565848 7990 7990 
-50.391380 -0.631818 32.632047 59.415938 -33.614725 -53.563325 -18.507432 64.660695 -27.662754 -7.635796 -27.868889 42.480058 22.019297 2.246487 23.119889 -26.698293 7991 7991 
-19.917810 -19.875256 17.153296 63.360327 -69.108444 -65.440386 -47.209540 141.037813 -3.741134 13.355405 -56.580685 -12.458368 8.388253 2.323623 20.961772 27.751133 7992 7992 
-1.449624 -16.697809 6.365435 34.490807 -71.971143 -50.350641 -67.344548 166.957521 10.982725 7.512053 -28.548170 -13.322408 -18.738858 -8.975577 -1.125547 52.215783 7993 7993 
53.979433 -7.437270 -21.171471 -67.016819 -46.089853 -25.730834 -70.180975 183.647788 -5.972031 3.182457 -44.178282 -11.314906 -7.010943 12.400264 20.287477 32.605964 7994 7994 
118.255773 8.188974 -45.474794 -149.752532 -50.298149 -22.772142 -75.144264 216.997134 21.694731 -30.140673 -65.896869 -26.487459 -2.672828 28.885112 54.556494 20.061491 7995 7995 
110.822579 32.735120 -69.456504 -197.558586 -25.900361 2.222365 -45.444258 192.579645 75.739178 -98.416965 -63.746469 -75.378831 4.543815 37.289560 72.359561 47.610150 7996 7996 
35.804392 28.024214 -59.502523 -187.176433 18.973878 36.808052 21.637429 105.430990 32.959964 -57.171528 -54.149263 -100.846615 18.057179 31.352678 73.653428 56.144158 7997 7997 
-25.010298 29.867401 -5.822672 -71.139073 25.575660 28.134487 38.289808 -19.895313 3.161705 3.873544 -28.250776 -50.634265 10.161659 -2.175245 35.911918 27.951460 7998 7998 
-36.941906 32.950725 16.513688 30.365097 29.197710 12.199759 13.296356 -97.581430 0.031099 -25.143007 18.885097 23.830477 14.308728 -9.981311 -21.245266 -0.685817 7999 7999 
-42.672913 38.972536 27.621933 44.140804 25.144824 -4.832030 -5.143561 -83.231592 -9.248244 -41.785798 63.591330 93.225198 11.084812 -12.777281 -64.690407 -39.399609 8000 8000 
-28.470926 37.732243 24.671330 -97.476547 40.960782 8.108673 48.139557 -33.665112 15.570610 14.233713 21.551409 29.669152 15.454020 -2.888372 -59.153466 -34.437066 8001 8001 
-1.121763 7.846186 -2.578026 -220.766905 69.205841 51.148297 95.615453 0.650916 -6.385279 41.517507 -87.400170 17.246821 27.769990 25.069919 -22.824055 5.005266 8002 8002 
11.674342 -14.863547 -19.061674 -192.432195 58.465574 58.436269 76.243380 21.537851 -23.714507 3.185313 -99.957291 29.161274 17.956983 31.240431 25.888627 16.239170 8003 8003 
36.918525 -27.648966 -1.622250 -107.600018 17.675045 15.358987 37.371035 29.547642 -6.709959 -15.822611 25.862935 -61.880500 -4.808138 10.293101 54.447677 -1.382505 8004 8004 
43.225227 -55.162606 11.033139 42.074636 -16.795768 -27.427900 -3.946796 7.000068 -10.754582 -13.488486 80.974480 -38.064358 -11.817216 -3.608854 40.698945 -43.939928 8005 8005 
26.482179 -35.071979 20.404330 169.525139 -53.725856 -58.131372 -36.387406 -33.095034 -11.167020 46.843619 65.671331 -18.457690 -9.173909 0.494110 21.215443 -95.425885 8006 8006 
6.430371 26.380206 43.071436 147.650349 -70.863041 -60.578993 -58.547574 -33.542753 13.824508 94.246125 60.109822 -55.367473 -15.803668 0.160206 10.281824 -107.451345 8007 8007 
6.482923 51.924761 35.477020 23.977428 -57.598207 -38.628230 -53.265474 31.629779 60.915886 67.359795 12.811889 -74.269025 -32.516760 -9.076269 12.469497 -37.695013 8008 8008 
-16.579830 -4.273068 16.023052 -3.694105 -19.908952 -1.981946 -19.167806 49.582655 53.736619 57.299712 -96.046027 -114.221661 -2.565489 21.531130 33.183556 47.082161 8009 8009 
-37.463328 -57.387234 -12.860123 0.076145 37.974919 50.891705 19.089843 -0.321927 -5.037284 27.412834 -141.765226 -85.106710 47.858281 64.033087 31.168190 61.436829 8010 8010 
-7.320789 -20.182587 -8.337827 23.282321 19.121005 25.022559 -1.541779 -30.042903 -35.964961 -5.230538 -15.405309 -31.466053 14.922495 19.814188 -15.811966 69.142144 8011 8011 
7.595072 -3.215583 15.256937 62.282451 -4.701514 1.301825 -19.894153 -58.625035 -31.416535 -7.153696 20.173696 8.246051 -17.557621 -18.423401 -36.709991 82.841497 8012 8012 
32.066968 -8.623022 1.091603 11.434513 -0.514359 17.965856 14.550156 -67.971715 14.546046 14.855684 -35.548515 -11.718119 -17.847774 -10.754662 -10.973042 57.440382 8013 8013 
32.836354 3.938073 -8.599290 -2.165787 -16.407977 12.234483 42.801040 -64.636897 47.127545 14.009432 -34.622049 -10.068447 -28.930407 -26.783424 -3.332721 42.600071 8014 8014 
4.792003 28.992837 3.308933 18.349729 -13.444802 -0.143110 38.645407 -80.500996 17.014526 1.732247 20.960203 43.511701 -22.086365 -38.877454 -15.905989 -6.348869 8015 8015 
-36.847019 43.389653 4.371353 14.298142 2.605487 -0.142743 29.129225 -56.804097 -27.895042 23.366786 89.781901 35.086591 -8.582503 -27.183542 -14.232121 -70.342071 8016 8016 
-74.777115 13.862918 -6.234837 3.146150 11.356905 17.366210 35.165751 0.114018 -16.100434 30.420285 53.978266 18.886736 -2.338186 -13.317595 4.488115 -76.017189 8017 8017 
-32.089721 -1.602909 -4.995919 7.272165 0.607785 16.212829 -1.679808 16.275577 -4.029167 56.958424 -0.211399 12.566226 3.003231 -6.502938 15.643511 -77.427887 8018 8018 
-4.871669 2.180499 5.585962 61.879003 -8.920323 6.220685 -52.989300 -9.084856 -33.658802 35.482307 11.447768 44.804973 15.437617 2.599118 3.919759 -80.032740 8019 8019 
-31.803100 -11.548880 5.848339 94.724298 -3.911458 10.403695 -47.558082 -16.154811 -42.543751 -60.757209 10.244910 107.785419 29.308829 18.386590 -9.289136 -53.135653 8020 8020 
-33.024582 -26.797993 -25.807287 22.023839 11.465043 30.013403 10.540181 11.587396 -29.875931 -100.263325 -37.509588 101.176965 38.856952 29.573488 -10.284687 8.326125 8021 8021 
-12.797589 -22.993342 -42.327974 -49.746172 16.585373 27.142761 47.238742 36.898201 4.750312 -69.371735 -34.632152 12.066882 30.156426 13.383727 -18.153121 61.799661 8022 8022 
5.086869 -3.668030 -23.583081 -39.492793 6.300562 -8.863187 23.447786 40.771873 28.792527 -40.916395 25.673907 -36.563486 -13.344681 -27.585439 -33.871694 97.815261 8023 8023 
1.471150 4.947725 -0.735427 -20.655457 2.172460 -20.307216 2.164373 30.942393 15.003549 -54.589478 47.748062 -58.653992 -35.577401 -27.569383 -6.178054 119.816696 8024 8024 
-0.789845 7.954787 26.319414 -5.994789 7.120333 -12.981500 -28.864092 7.235692 -18.152517 -72.770196 25.278504 -21.651304 -27.463703 -2.649149 32.273885 85.134480 8025 8025 
14.151477 22.628899 50.871949 34.751017 19.622188 -7.181996 -73.987546 -60.855987 -32.911717 -56.250341 16.591735 47.185502 -25.409758 -5.383247 32.318848 23.858979 8026 8026 
-6.882973 16.889021 44.900417 22.102596 55.580638 30.218615 -64.877073 -97.931243 -19.547076 -20.279620 -9.950092 19.706018 9.195211 26.434973 37.331885 -42.891300 8027 8027 
-66.323870 5.292983 33.546163 -36.416757 70.894739 35.555042 -44.171187 1.622888 14.975489 1.195739 -40.345751 -8.652081 32.359294 41.761563 31.695368 -72.989621 8028 8028 
-78.825769 16.546983 34.362198 -65.648438 59.255181 9.343581 -27.191880 52.158145 50.566287 7.848407 -13.867156 -4.638420 19.267846 11.140952 -10.856227 -59.461689 8029 8029 
-4.817119 18.977230 0.987546 -59.312655 21.556344 -9.142124 9.019557 22.731221 43.895796 6.404415 33.998304 29.232742 7.608216 -6.894792 -40.863313 -73.381368 8030 8030 
69.564080 0.298315 -51.809557 -77.332492 -15.699862 -14.224059 41.371619 47.831957 16.565490 -10.995381 30.101421 -6.866840 9.518008 -2.604561 -14.228457 -21.489680 8031 8031 
90.530969 -13.205793 -42.424595 -7.285559 -43.889552 -36.852716 27.802276 25.324971 -1.408634 35.476745 -10.851153 -88.830189 10.658522 3.162588 14.798437 36.993685 8032 8032 
60.565377 -22.431213 46.707375 141.418107 -98.043919 -90.666737 -32.072771 -5.476218 22.055636 89.616372 -25.558460 -87.545166 -2.553361 -4.602640 0.301238 8.286382 8033 8033 
16.523454 -14.194860 55.388707 108.033147 -91.369104 -73.369091 -36.208279 35.196026 55.643258 40.884902 -37.593114 -3.163546 -18.431922 -15.354131 -33.001147 11.015700 8034 8034 
-39.503193 -9.023046 10.767106 91.072879 -41.216908 -24.795322 7.979357 4.719126 55.011593 29.742935 -13.364188 69.191751 -24.707121 -25.706210 -57.412680 -32.756079 8035 8035 
-85.970441 9.878188 27.059896 143.645760 -23.223381 -11.947548 -11.329391 -48.113082 74.807443 22.963541 57.266890 58.694687 -40.673951 -39.774441 -59.848191 -73.435978 8036 8036 
-12.315650 59.528455 34.552966 112.303223 -32.844469 -18.456221 -85.836405 -56.931898 6.578741 -29.440379 114.499276 66.436943 -70.198858 -56.989092 -25.191009 -5.695622 8037 8037 
72.440735 44.939538 34.047813 72.673823 3.647294 26.022242 -61.502386 -192.269058 -68.291907 -29.196365 87.496059 34.782690 -37.927813 -21.877179 25.374024 9.640491 8038 8038 
76.513710 -6.618634 2.109102 68.499174 38.556471 60.887876 2.695356 -242.643054 -50.321944 -2.745810 18.471552 -13.849231 17.118119 26.646345 24.793654 -20.112685 8039 8039 
60.308883 -37.055234 -31.559532 57.706898 9.720543 12.685248 0.654750 -72.461557 -118.794887 16.928440 -9.804157 -3.592090 52.274048 45.967461 18.306949 -1.285764 8040 8040 
29.789373 -47.482011 -22.849122 1.974126 -9.915147 -27.719032 10.041227 66.160586 -104.082040 25.638199 -42.002101 7.450127 40.959968 20.159994 8.781676 43.094178 8041 8041 
28.729898 -28.344603 -13.717624 -42.283578 -27.592437 -52.654279 1.909907 133.952717 -67.471502 62.662036 -40.482840 32.754868 -18.059821 -42.266660 -23.011324 95.875243 8042 8042 
35.305361 -4.645074 -59.986228 -108.615446 -5.123240 -30.880811 14.127505 159.817933 -108.180789 57.085854 -22.726002 58.004017 -25.549554 -47.028819 -31.498379 119.893672 8043 8043 
38.020290 -3.308662 -101.113278 -170.807486 15.399813 -9.226721 36.270934 194.765110 -85.091855 47.143755 -42.718193 22.758407 10.074033 -7.715683 -30.424896 85.974432 8044 8044 
59.844180 -19.271831 -90.497118 -184.056284 -39.317431 -38.633321 35.397111 276.534694 -14.673323 16.699468 -23.969219 -28.877906 20.845316 11.694844 -11.084986 29.365806 8045 8045 
56.306550 -44.570058 -88.358472 -165.309820 -76.833016 -38.568686 56.841973 300.491529 79.119792 -127.421065 -1.333695 -40.463995 17.349208 23.563500 36.477793 12.708461 8046 8046 
8.150667 -52.693515 -45.488071 -83.119290 -37.294588 11.872660 45.638099 152.934037 43.916856 -222.699791 -20.576312 -41.118926 47.466709 64.624836 99.766602 28.620025 8047 8047 
-40.055914 -34.795518 -0.774220 -13.819232 26.357855 53.367349 19.641935 -9.922256 0.022861 -183.063761 -41.305913 -49.758965 71.080322 87.225331 97.686673 18.113452 8048 8048 
-12.351412 0.620636 2.902312 -35.776207 54.772714 52.959189 -33.173419 -29.953814 40.186502 -46.466789 -53.731013 -44.220017 31.520964 44.651599 17.850777 10.207976 8049 8049 
16.245290 9.923599 -7.529882 -62.483831 68.442528 58.154177 -67.535487 -15.216393 46.594805 61.717136 -69.137619 -45.717960 9.680002 18.471449 -29.629220 8.021408 8050 8050 
-6.655755 -25.437322 -52.040635 -81.792570 71.469621 69.299497 37.741335 -12.584171 30.408071 136.208966 -91.037340 -57.686345 8.801255 16.471575 -13.391509 -29.774672 8051 8051 
8.377211 -15.110456 -67.573982 -77.676378 36.960562 42.572131 103.064089 -30.613178 -3.328978 189.987458 -55.525726 -32.819269 -22.790638 -13.513808 8.585120 -70.594159 8052 8052 
18.793906 16.065993 -31.061465 -27.438065 -1.404476 1.557092 68.267855 -44.780839 -11.617655 136.537679 6.216244 -23.996783 -32.201345 -27.371519 16.849787 -64.416409 8053 8053 
-2.674213 39.058181 11.787990 29.187326 -19.350745 -20.284720 38.062445 -75.786264 12.032411 43.578181 74.220723 -13.162053 -35.210803 -37.940484 13.841731 -57.359706 8054 8054 
-13.588187 53.057580 43.615605 44.123430 -16.795734 -17.124723 21.722169 -115.010141 40.649682 7.201156 98.530901 18.154237 -29.909163 -39.813464 1.647433 -96.460782 8055 8055 
-45.769055 47.386559 50.755576 18.197169 6.684265 10.366809 20.758205 -108.379528 47.099729 -21.670798 64.431218 47.271048 -16.942636 -15.239890 16.890065 -121.838737 8056 8056 
-70.622380 44.015151 82.672243 6.202395 20.130961 20.052408 -12.153148 -90.297628 0.057803 -46.922194 66.397531 54.036753 -5.371643 0.894746 19.974363 -89.067359 8057 8057 
-61.074239 32.666035 94.675895 -71.130886 27.063215 38.323102 -31.244340 -29.278782 -48.708458 -71.179263 42.403930 61.226800 -1.438673 9.732965 18.666880 -10.704180 8058 8058 
-69.820486 21.622162 68.649237 -10.154084 31.641896 45.970161 -82.490873 -5.418014 -36.536519 -116.442737 5.525223 80.358754 -6.651650 18.735104 30.798397 24.213427 8059 8059 
-72.473685 2.665823 40.739304 144.458629 6.229843 1.842312 -93.942889 -29.519336 36.329100 -70.337961 -39.738999 8.494654 -11.525919 13.605478 22.201259 40.972388 8060 8060 
-51.722410 -12.357550 14.401060 184.360664 -34.201365 -45.270402 -21.213829 -33.996167 116.462235 20.904382 -41.744432 -130.804641 -15.813553 -2.033985 0.495320 52.534674 8061 8061 
-85.753608 -13.841711 36.625493 193.288938 -11.235786 -36.502665 -0.867215 -81.713446 134.120906 -9.744019 23.871713 -142.058391 0.999165 -6.686013 -21.312924 20.809563 8062 8062 
-148.101243 -6.839807 58.809104 142.895990 34.698636 11.183600 7.610297 -100.256577 95.363746 -100.486322 45.893019 -5.866255 -10.501824 -27.854039 -34.321612 37.773288 8063 8063 
-132.244840 10.871749 49.237987 81.984649 37.772667 31.111329 -7.492553 -71.240988 57.375428 -103.819599 33.219638 45.471247 -23.827315 -33.191494 -39.492632 64.264728 8064 8064 
-30.369660 18.798642 18.143586 -20.489081 49.692000 37.710475 -4.793695 -68.692266 25.478986 -18.385890 -17.770604 12.189793 -6.703082 -10.944278 -36.501032 52.636107 8065 8065 
75.923727 -13.266697 -19.097209 -88.547049 43.489816 16.572950 27.337894 -42.413432 -74.891235 112.019148 -76.891252 -15.031659 31.647962 11.667956 -32.170045 43.649126 8066 8066 
102.142607 -45.785532 -59.654039 -71.329759 10.951194 -6.594047 30.028207 40.241369 -108.267768 174.901350 -88.690404 -10.845263 35.636917 17.814338 -35.092111 14.542941 8067 8067 
83.706094 -38.895294 -85.100199 -30.968522 -23.812256 -27.467374 15.320820 107.216733 -20.493643 136.751013 -54.949259 25.683424 -4.162280 -2.138710 -39.334415 -41.356130 8068 8068 
69.715708 -0.354170 -44.590934 28.037323 -58.466774 -61.583271 -10.120087 77.362206 -12.525593 63.745505 22.120033 69.190074 -14.340257 -18.005961 -39.050436 -71.133365 8069 8069 
52.906540 38.255417 8.332507 12.160551 -56.419438 -58.932467 -4.467868 8.164757 -20.530982 2.756322 52.116068 67.478299 -8.362066 -17.346289 -34.610799 -41.500553 8070 8070 
49.881719 54.070263 32.023662 -5.082404 -40.327059 -42.640631 -12.600209 -35.325342 -2.696972 -13.871005 30.660669 31.616528 -13.676426 -15.829370 -25.703304 9.499880 8071 8071 
18.314109 44.448721 28.213545 16.649641 -21.103116 -19.611282 -20.138065 -46.773554 -5.682732 -28.201082 32.813929 18.101537 -14.343742 -13.139189 -13.787581 24.238860 8072 8072 
-20.366758 -0.508045 6.741646 25.042011 13.038195 16.228374 10.383544 -50.558966 -19.263345 -48.081742 26.457224 -29.862904 19.687107 18.940065 15.171719 16.951876 8073 8073 
-22.146505 -19.480106 10.720018 41.621769 41.209448 48.478718 42.237035 -142.640377 -23.231042 -49.973467 0.579262 -62.240776 40.101674 35.103824 35.137720 24.522805 8074 8074 
-8.941748 -11.686226 8.374491 15.678816 56.424914 64.488153 55.256194 -179.594593 6.588353 -43.139093 -23.475680 -44.799247 27.464981 17.529369 17.827966 42.003353 8075 8075 
-11.896897 -19.084866 -9.661714 -4.813885 40.456290 43.216732 25.992081 -64.207741 15.694922 -59.447473 -0.385187 18.689701 13.622383 0.185952 -14.505219 26.144922 8076 8076 
-34.129790 -30.881443 -18.681048 -7.332711 12.942906 10.363515 6.336660 61.381911 11.752116 -49.617158 15.360120 73.268996 3.748586 -8.516997 -42.710210 -3.285454 8077 8077 
-27.984818 -36.403042 -28.353499 -25.866990 -20.906458 -30.099122 -0.847698 170.461627 -25.153882 34.393181 22.028425 61.087223 -4.440207 -17.651048 -47.880769 -22.382922 8078 8078 
7.706525 -32.524603 -22.652961 -36.311608 -61.681688 -65.360125 -2.001315 212.825775 -76.514007 103.811718 32.894382 16.281764 -10.715298 -17.234407 -22.903216 -25.620936 8079 8079 
51.114707 -22.839553 -18.016785 -62.803561 -76.289433 -66.620159 -1.483352 196.938136 -60.409298 95.169681 19.574487 -34.078135 -9.250150 0.311302 15.440754 -26.758641 8080 8080 
52.056901 -9.750569 -34.773568 -62.806741 -67.020068 -44.782738 4.291230 162.785554 -10.283487 30.016615 23.459187 -23.020800 -12.797745 4.154005 36.103231 -47.631006 8081 8081 
32.966920 4.275434 -25.542670 -32.917636 -63.868867 -27.942845 22.750651 90.279012 36.459628 -8.279727 33.294093 -0.084401 -27.482836 -9.063429 23.094774 -47.938102 8082 8082 
36.020704 9.800617 3.533618 -16.312408 -51.523329 -10.450090 22.012138 6.918750 40.245026 27.806434 16.130118 -21.739303 -11.017343 3.712727 8.041550 -63.179209 8083 8083 
12.027619 11.291710 13.221376 -0.566634 -14.347391 16.297101 12.966259 -50.890041 23.389685 38.912367 -47.989399 -13.537114 19.307652 25.497192 3.427192 -49.007577 8084 8084 
-17.456751 36.417968 27.752039 14.384133 -0.739771 24.026728 -6.146407 -78.237939 17.234141 6.989168 -34.894370 -25.776468 10.972741 17.037808 2.923778 5.513201 8085 8085 
-21.808680 34.787236 22.026405 -29.100470 20.186188 41.654702 4.257531 -72.002912 -7.069778 -11.522285 -13.848771 -35.163012 8.567509 16.510163 11.359553 31.166622 8086 8086 
11.576182 2.376676 -2.450976 -66.692306 33.751776 30.685066 8.690142 -17.936561 -36.132389 -25.867038 -36.571325 37.784744 13.208371 3.760267 16.130256 27.687115 8087 8087 
74.321163 -2.815512 -43.072539 -110.845840 30.141211 27.719186 15.789439 8.762892 -70.288282 -34.118249 -44.873178 69.695735 18.599709 13.032369 42.164517 5.787379 8088 8088 
86.871814 18.753272 -52.891849 -159.044907 39.123354 45.488478 23.044519 -1.344682 -47.896995 -52.845025 -45.420556 48.159738 16.004463 27.835142 56.566050 -2.402816 8089 8089 
55.394375 37.159248 -3.315033 -103.816385 30.043967 6.907969 -24.578206 2.204063 -0.297088 -44.607235 23.153733 67.152663 -16.544374 -19.038280 6.783186 -16.602606 8090 8090 
13.295473 -14.960037 17.599163 -7.652126 40.338503 -5.131797 -55.953195 12.464017 12.074661 -15.011558 23.645474 33.793026 -2.799874 -14.303035 -26.247694 -11.151000 8091 8091 
-43.446119 -73.683547 37.029928 141.130714 40.170230 -8.535866 -73.211455 -19.453883 9.747703 -24.786066 41.701548 -18.518401 9.303754 6.807534 -37.185215 12.929143 8092 8092 
-68.457527 -57.008534 44.356120 234.785475 15.008115 -22.506584 -78.818144 -67.358921 -0.413086 -45.851738 87.418613 16.894740 -22.229614 -12.797134 -45.491049 22.469268 8093 8093 
-40.321155 -16.321168 50.517521 176.179013 -10.193766 -33.121860 -83.703494 -43.035093 5.232285 -21.383554 28.412246 -35.381358 -14.261264 -6.965051 14.218964 30.127733 8094 8094 
12.942726 -21.485159 39.617925 100.147610 -31.739922 -39.769906 -84.448496 24.735221 -14.415608 -2.979242 -52.557747 -121.656536 22.495027 24.242539 105.784213 39.087355 8095 8095 
43.389755 -33.092458 15.741364 26.477346 -28.548876 -19.722747 -45.177000 40.932617 -44.263933 -27.785172 -98.801433 -90.604861 39.116916 39.704084 114.039331 68.595069 8096 8096 
-34.480807 3.255184 25.968106 19.523097 -5.752620 -5.825890 2.969203 -5.656272 -18.299724 -43.530787 -30.754086 -41.440196 17.002216 11.183406 45.067202 60.771968 8097 8097 
-131.857100 5.739771 12.469029 98.027711 21.488417 1.637890 17.113044 -24.618762 6.691988 -61.306846 29.319403 66.624365 -3.472051 -17.825898 -7.447627 -12.583335 8098 8098 
-75.377365 5.994090 15.054820 87.727791 4.197074 -18.020626 -3.124316 -16.451467 -3.732491 -42.163296 59.651971 166.868955 -25.533636 -44.827905 -45.803857 -64.459740 8099 8099 
14.116601 38.139903 8.765578 -6.079017 1.296535 -14.647051 -16.114037 -25.478512 31.429046 6.017968 73.530898 95.400503 -35.375415 -47.520231 -53.622454 -69.860315 8100 8100 
51.612549 31.472890 -12.398701 -70.790865 25.808055 14.428397 -13.902315 -26.230009 25.462643 72.473371 4.484108 -15.888635 -4.925875 -12.915294 -27.039563 -41.650755 8101 8101 
68.122942 8.395664 -22.079591 -108.603792 9.966134 17.763075 9.662943 16.772625 -9.845516 99.535184 -45.359970 -25.948310 4.508853 -1.281610 -2.772854 -18.835777 8102 8102 
44.687084 4.261894 -13.811308 -120.167789 -23.236593 13.910238 30.601013 63.755460 20.051534 29.425356 -58.210133 29.698979 -13.360190 -10.147285 13.984186 -11.442446 8103 8103 
32.898307 0.742577 -6.263885 -109.320875 -49.229298 2.532053 52.662532 75.978589 49.073344 -18.694882 -66.973898 42.171655 -35.519649 -19.005099 10.065226 38.883303 8104 8104 
-0.392651 9.106256 -21.054776 -80.248715 -49.388840 4.621936 78.321907 59.034883 86.109437 -17.080831 -54.022042 -59.999026 -41.915936 -16.663085 5.123558 98.447925 8105 8105 
-37.166398 42.918373 -29.501277 -41.639912 -28.574706 9.079506 60.941008 23.943406 110.207212 -30.061757 -18.804936 -157.510303 -12.754904 10.608892 4.416579 93.899217 8106 8106 
-39.920580 26.468938 -30.296302 11.483219 -2.244054 -1.619106 34.977143 1.150742 86.795898 -43.639765 0.176643 -144.534078 32.047741 37.681626 -6.288931 37.760866 8107 8107 
-28.601545 -24.795312 -23.113776 22.428301 24.455936 4.987549 37.754275 -13.115426 0.149479 -8.930698 -19.090460 -57.148329 43.864581 39.411783 -11.612505 13.356148 8108 8108 
-8.392913 -10.527253 -2.727508 -43.583854 25.609420 8.607646 53.577057 -22.562594 -61.411305 26.718530 -25.223708 64.123620 9.692029 7.405100 -19.266391 -2.037873 8109 8109 
11.000670 54.277518 32.601748 -144.029234 21.137730 2.485960 56.074082 -33.548475 -66.748563 34.036476 38.055006 135.253842 -44.665348 -49.802835 -44.387406 -1.741172 8110 8110 
2.447942 73.187236 -0.978928 -124.751956 44.356420 29.480334 18.783430 -42.524476 -66.136661 21.123680 48.567197 97.972402 -41.107513 -35.013664 -30.078097 4.672657 8111 8111 
-40.791119 20.037625 -30.186298 63.496439 47.139709 41.443685 -33.656115 -67.483925 -26.777751 32.631723 5.061788 -86.822119 26.814874 34.257829 17.567180 -2.733522 8112 8112 
-49.059420 -5.128250 1.507792 198.088217 3.457202 8.182457 -62.250729 -94.797269 -0.330996 68.514152 44.452392 -232.370899 41.473895 35.463872 34.216418 8.581167 8113 8113 
-39.325346 -13.718570 4.186004 198.799607 -35.680791 -10.294665 -43.667507 -60.298732 -4.855380 74.371959 42.630481 -114.361830 10.515136 -0.395537 12.840737 -20.745565 8114 8114 
-14.018977 -19.036231 -2.057999 125.042810 -40.509628 -7.543525 -38.206419 -3.670031 -15.235178 42.882794 33.150503 33.203827 -16.824489 -32.142671 -18.678319 -26.356466 8115 8115 
19.812346 -19.855819 -36.423105 41.683801 -7.984813 15.477032 -47.289414 34.579973 -18.895357 4.418374 20.471536 54.881594 -15.608111 -31.479143 -13.500605 -0.288288 8116 8116 
27.093240 -47.740177 -85.675795 -14.781394 18.588648 36.240748 11.731424 54.543305 -0.007580 6.826996 -70.492929 30.941329 12.403099 5.231356 -3.390668 18.488397 8117 8117 
32.002136 -22.179133 -65.868997 -3.132989 -21.466902 -15.106734 17.984016 77.768604 26.124075 13.105143 -32.541746 -37.552694 12.533898 14.709162 -24.574816 28.196978 8118 8118 
29.270065 4.295870 -13.977886 -18.047027 -44.653386 -49.755835 2.115002 90.753197 32.983505 -0.264780 29.130168 -23.183657 -3.741253 5.136117 -46.626116 6.566016 8119 8119 
