-1.711982 -4.106168 -8.270626 -11.817059 23.305863 22.439510 -10.190354 -9.649185 -27.528938 -64.962829 291.969506 203.848268 -85.971829 -319.034586 -30.716395 32.396804 24466 24210 
11.888482 14.918481 -2.277659 -29.982388 -9.084231 4.219625 10.422571 -0.104882 189.140047 219.127421 -354.027141 -301.718790 -58.686504 40.886068 -130.563292 395.842190 24467 24211 
21.106831 30.518022 6.004962 -31.532693 -21.969552 -11.679775 4.879363 2.672842 756.270732 -295.780454 -384.958288 -315.278265 268.450142 13.586951 -265.904617 223.613799 24468 24212 
27.148998 45.904903 15.812119 -26.175926 -28.608498 -31.480441 -6.387714 3.786560 394.419081 -188.270419 166.231197 67.751886 -329.483079 -252.595679 -101.305005 243.252019 24469 24213 
23.399586 42.773928 13.433985 -30.497915 -18.025452 -36.652642 -3.421367 8.989876 529.320962 93.080933 121.925683 1.948026 -204.979449 -271.388722 -338.094069 68.186637 24470 24214 
15.290514 26.320536 9.297959 -22.815507 -24.288495 -32.512002 12.638643 16.068352 126.340424 -340.148180 -62.299170 181.252885 -125.682424 -208.354516 115.454566 313.436415 24471 24215 
-3.373558 7.829766 7.308184 3.647844 -30.896458 -18.940431 21.463082 12.961571 -449.146842 -109.953348 -162.033162 143.797304 146.257233 -80.153596 226.946589 284.285822 24472 24216 
-26.042735 -16.804107 -1.261252 26.313758 5.879063 18.943973 -12.768100 5.739400 -497.950339 28.101693 374.260131 1.789112 297.068800 37.157392 -31.623289 -208.803499 24473 24217 
-20.909478 -12.731275 7.243341 39.465856 15.688764 32.812026 -73.653413 12.084180 -398.976312 111.037872 27.215518 305.653718 -151.629963 65.501697 246.620531 -205.423061 24474 24218 
-9.293022 -9.306904 5.302316 29.335700 -0.579257 36.646158 -65.434685 13.329695 -33.124577 -470.093768 -191.525762 102.166911 320.696091 247.712441 29.476285 -5.307622 24475 24219 
-8.614934 -14.325508 -11.987386 14.627209 9.656230 32.087844 -30.329246 8.885791 -23.799541 -111.407964 272.335861 -226.873060 135.205309 292.173637 -492.713246 155.079005 24476 24220 
-11.818007 -22.429358 -20.852555 21.157068 23.717511 38.150191 -29.134127 1.209277 -42.475950 324.797518 -95.775284 -22.444208 85.775825 93.419023 -322.697186 -20.599738 24477 24221 
-14.929900 -44.788027 -24.540624 23.249545 36.521815 51.757825 -22.436563 -4.834070 -60.506761 7.670984 45.891042 -113.736404 126.302252 180.603625 -269.295152 83.070414 24478 24222 
-5.886170 -31.568596 -17.188705 14.708797 26.576788 29.510552 -25.483038 9.330372 -50.875930 157.992369 -40.608118 -96.377855 41.891113 87.287556 -115.981556 16.672421 24479 24223 
2.585673 -15.770593 -15.708174 -2.939435 7.311988 15.418024 -10.983445 20.085960 -113.000363 227.461400 -131.395449 -163.462008 41.427718 69.885025 50.735095 18.348581 24480 24224 
2.893951 -12.383077 -12.290902 -11.805284 7.195634 10.916524 2.889425 12.583729 -73.322763 309.580060 -70.007326 -201.607115 -85.755463 19.760214 91.339752 10.012641 24481 24225 
5.169206 6.709100 -4.401416 -14.939502 -0.880261 3.564550 -0.749581 5.527905 49.718399 -551.651935 -3.978601 -2.227509 49.592405 53.516054 368.791799 36.239387 24482 24226 
1.849566 -5.670628 -13.929891 -27.880357 -0.495659 10.739263 26.279040 9.108666 78.170235 -498.716934 107.648903 -27.779745 3.912610 -0.973463 320.486670 17.251724 24483 24227 
-10.814230 -37.485723 -23.704254 -26.741688 24.160188 31.993297 39.138995 3.453416 67.345991 194.342913 17.183330 29.510717 25.387836 -113.457599 -127.802127 -92.511060 24484 24228 
-1.749335 -14.791399 -2.958491 -7.544372 12.348027 8.550155 -0.386298 6.531712 -67.102759 62.922462 -69.386774 -59.843268 -183.763559 177.294954 73.182377 66.696567 24485 24229 
13.806192 21.139602 20.793594 13.169486 -20.223573 -26.707534 -37.622020 15.644253 42.230889 -81.083412 -95.636260 -137.318720 -238.104573 91.997033 320.555399 97.359643 24486 24230 
13.804052 23.531815 25.938186 14.018865 -21.230591 -26.079484 -39.752750 9.769907 693.719549 -19.086957 -31.579140 -168.158744 -81.416117 -270.412199 -183.853449 60.787055 24487 24231 
11.516254 17.499361 20.258598 -2.163084 -18.089705 -21.653972 -17.706600 10.339146 659.957567 281.600483 -161.448718 -31.831048 -266.198731 -253.963873 -217.434618 -10.681062 24488 24232 
9.609156 16.285017 -0.534719 -15.617152 -27.998370 -14.520588 18.018263 14.758393 151.793353 -225.827313 42.449774 -29.189746 188.516172 -231.943983 -450.901971 555.103714 24489 24233 
10.463676 25.119410 -8.267781 -9.951529 -44.717639 -24.672011 39.375832 12.650042 28.630186 -239.025558 -172.069880 -185.886012 400.326608 -292.831948 -226.241915 687.098520 24490 24234 
4.001758 25.006286 3.470204 3.195429 -38.026676 -28.405183 35.756095 -4.997913 236.673888 -24.679192 -8.798056 266.172219 -188.222109 -23.817561 -259.463528 2.134339 24491 24235 
-5.072195 15.123323 11.910307 3.475648 -14.642527 -19.988729 28.429443 -19.235270 -355.672273 179.484651 315.708225 244.361033 -103.179914 -179.740103 -192.364288 91.402668 24492 24236 
-17.401843 -7.303001 3.925618 7.418635 1.399612 -9.584698 43.212319 -21.666643 -755.625531 150.132635 99.510979 263.950894 83.282173 -132.782660 513.766998 -222.235489 24493 24237 
-20.615076 -24.291222 -3.593939 6.389189 9.524377 -6.303021 58.825841 -19.936150 -118.807337 1.080182 -4.816962 209.721879 33.110076 230.549103 209.631685 -560.468626 24494 24238 
-13.264592 -28.044582 1.841670 1.179132 9.898464 -12.813265 56.806612 -15.603439 -257.789998 130.465567 128.342331 -96.044701 119.917354 128.222455 -28.840984 -124.272023 24495 24239 
-8.752343 -26.506554 5.466822 0.878652 4.447771 -11.141592 46.418223 -10.810978 -107.803180 -202.015053 97.762896 168.610498 66.596554 201.849892 17.064779 -242.066386 24496 24240 
0.939251 -11.265620 -5.097103 -16.622644 -8.632171 -3.802394 36.522427 7.958253 -132.302824 224.419452 1.642962 -26.761165 33.124111 114.647284 -44.410477 -170.359343 24497 24241 
9.164035 4.967947 -13.105597 -24.500944 -19.676420 3.161809 15.054408 24.934763 -114.769350 -5.393195 93.799145 60.000441 16.021175 86.688659 17.394943 -153.741817 24498 24242 
8.803496 8.766492 -9.568654 -15.694254 -19.001479 6.713287 -0.478864 20.459975 1.745732 49.587466 28.018231 55.267993 -33.766133 52.295117 43.109131 -196.257538 24499 24243 
2.353826 7.797275 -3.502429 -5.103652 -10.071162 1.724172 7.965167 -1.163197 -80.031327 140.075909 91.947858 14.201680 -22.107937 -24.727669 10.538959 -129.897473 24500 24244 
0.230984 14.809926 3.243000 1.882293 3.994239 -8.825739 4.536432 -19.871135 56.931062 -142.704205 29.326250 91.519354 19.767342 29.535459 85.803717 -170.178979 24501 24245 
-0.429875 11.826992 -1.626698 -4.130434 21.872339 -9.379627 1.817090 -19.949788 -32.214267 41.516898 37.506195 -13.972927 3.001266 -51.207644 120.566788 -105.196308 24502 24246 
-1.923357 7.237016 -0.096268 -1.664225 25.102952 -11.603833 -5.505471 -11.546815 97.633391 -250.758909 12.750596 38.801396 -24.524191 -8.308531 244.235264 -109.829015 24503 24247 
0.375912 8.352105 4.920202 -1.293608 30.321587 -12.324369 -19.166785 -11.185044 -27.135124 326.064064 -88.211405 -146.317407 -86.052062 -101.650085 215.640744 -92.338725 24504 24248 
3.413207 0.999540 3.364547 -9.523094 49.560251 -7.978982 -19.518204 -20.317265 -29.705877 227.174838 -139.915173 91.412435 -117.026470 -124.071493 58.696314 33.435427 24505 24249 
25.095910 13.102600 21.846248 -20.991493 25.276233 -10.250413 -14.735327 -39.343758 -11.398260 -429.657508 -123.725604 -178.246796 7.702764 -113.361445 168.195894 680.490956 24506 24250 
56.717229 44.988453 50.840265 -29.797308 -55.384093 -13.669858 8.006856 -61.701543 267.170499 -44.210874 -144.167607 -408.434360 4.262071 -221.799587 -42.906241 590.086098 24507 24251 
74.343887 68.505643 76.722621 -21.774132 -141.246329 -9.154552 34.435471 -81.832610 518.583676 -164.552400 -311.658024 -99.939119 83.306695 8.649749 -344.523078 310.132501 24508 24252 
92.932541 93.845649 107.436138 -16.280140 -203.723892 -14.301552 41.284885 -101.193630 370.377377 125.182702 -136.788580 -160.182735 -94.695372 -69.599396 -313.704335 279.410339 24509 24253 
-201.565866 -190.869864 -169.647874 168.890037 -30.219848 146.826013 208.034074 68.553328 443.353775 113.689559 172.564500 127.222380 -240.228001 -257.902220 -342.120310 -16.579684 24510 24254 
18.966234 -424.061628 -387.787779 234.613015 92.575827 168.689633 154.805793 142.198906 89.219338 -0.032069 29.657028 103.814590 -36.655469 -14.414327 -37.140329 -134.448761 24511 24255 
179.856793 31.446836 60.388342 15.986661 -18.350892 -68.530929 -200.479025 -0.317786 -449.567069 184.779127 77.616255 205.196507 -118.684720 -19.413821 412.323746 -292.250025 24512 24256 
-205.316531 181.467692 177.120864 -4.876710 41.687790 -47.719266 -181.456021 39.092182 -398.568294 -272.125654 105.404613 7.428738 116.225983 304.332798 373.216558 -235.914742 24513 24257 
49.559534 48.517667 21.126429 -21.753823 39.971156 -42.959474 -110.502963 16.041473 -130.638002 88.997248 24.125106 -139.435862 181.955188 392.554074 -42.337000 -375.220751 24514 24258 
-46.512060 137.498405 107.285201 -42.258521 31.052503 -65.226364 -118.342551 -3.496613 -210.364837 -94.939979 77.165998 158.384548 59.031230 241.449082 12.429890 -243.155932 24515 24259 
-43.624877 36.974620 20.500581 -12.742198 80.366797 -29.715182 -91.108541 39.348798 -150.874934 5.194535 -20.578149 -61.599848 98.658767 298.697148 17.226181 -186.723700 24516 24260 
-26.326715 24.627656 12.422710 -19.932879 87.571090 -30.944418 -110.741359 63.323914 -139.061140 230.132751 15.000980 64.545118 -36.113697 137.442509 -59.523176 -212.423346 24517 24261 
-113.836619 -15.531995 -40.497275 -4.049367 132.238823 10.774095 -86.292130 117.194469 -99.293928 -9.570914 14.228044 4.671663 -25.674739 143.904278 48.008396 -76.272801 24518 24262 
-44.658954 -55.562671 -88.750255 -18.479566 154.073097 18.513018 -92.577713 127.443043 -18.627750 127.871055 35.621610 20.611334 -59.071280 41.266501 -29.412865 -118.258605 24519 24263 
-128.585248 -58.699769 -97.511724 -7.040499 164.809032 41.564451 -70.428658 155.892415 -40.576744 -65.979700 30.927749 40.490247 -22.719974 28.064266 34.451086 -4.656931 24520 24264 
-26.008651 -70.292172 -111.348297 -20.518190 115.990840 35.787883 -55.714246 132.102834 62.885393 -204.121975 47.051791 27.771492 35.394522 29.261209 13.502703 -11.745135 24521 24265 
-58.794045 -39.011811 -81.787619 -42.885823 97.559791 51.511250 -13.229212 86.637470 25.064807 -43.647836 30.812306 28.290987 -20.600303 -64.661184 29.946810 14.794413 24522 24266 
14.656254 -38.198087 -78.640301 -71.233911 73.897227 54.590576 26.283273 18.644969 102.635845 -163.269897 56.619332 1.167029 -5.499408 -53.071852 33.534774 27.884177 24523 24267 
17.186109 18.398329 -13.397699 -57.961034 -12.009681 25.624414 48.161211 -26.001649 53.080770 -154.249438 33.700124 43.092023 0.380095 -61.780202 48.655655 37.120974 24524 24268 
73.872286 46.422417 23.415811 -48.663181 -138.599529 -0.184383 89.519446 -45.782868 33.659887 51.949045 -20.986754 -117.171380 14.531326 -78.733552 17.365037 99.386390 24525 24269 
100.838951 78.998682 61.416995 -65.216399 -197.786947 -4.542818 109.525705 -83.234169 -203.198023 -90.574175 -212.971172 17.316829 80.984891 -92.896524 -70.100098 571.438273 24526 24270 
101.086221 81.153554 69.706841 -82.884201 -171.404107 0.139279 124.503739 -122.301326 53.766325 294.811562 -393.076042 161.577813 -100.626380 -299.059046 -351.254206 633.859974 24527 24271 
123.142798 82.896062 83.623416 -100.626982 -131.844963 -19.413435 123.867692 -161.644588 320.979723 -137.764565 -41.707245 35.688451 -170.773345 -216.906764 39.746958 170.736786 24528 24272 
101.683082 87.903910 104.136480 -84.866865 -103.356166 -30.085308 113.093360 -188.508492 -119.602273 14.154204 84.097883 -95.944638 70.065425 110.319212 66.132915 -129.222728 24529 24273 
61.875343 34.434566 71.381414 346.654057 -176.450599 -103.848968 31.341555 -265.387369 107.237997 343.459544 83.628459 -49.307685 78.654355 54.015437 -340.940791 -276.747317 24530 24274 
79.347349 81.734361 139.097322 118.639763 -172.198355 -74.452643 52.579998 -224.747795 25.915391 1.269513 93.593462 -91.778690 25.324672 30.971693 44.073509 -129.369551 24531 24275 
156.360343 127.229899 204.329187 -337.824230 -118.299405 -7.671756 108.985944 -133.109982 38.383166 224.960038 82.432065 -59.188830 3.014261 3.311914 -120.036654 -172.875959 24532 24276 
55.018108 36.132610 127.592361 42.388553 -122.011069 -51.010040 37.281304 -125.391826 57.002476 9.145542 89.293925 -28.772395 14.434316 -2.709966 -17.690851 -120.703046 24533 24277 
45.577754 14.342989 112.187137 -76.866110 -48.662627 -29.295927 42.380670 -59.663886 -53.901488 80.536455 -10.459149 -26.673399 64.131484 28.960046 4.848247 -87.442196 24534 24278 
-9.478514 -10.865581 77.863233 37.816402 -17.828653 -37.120300 1.107784 -41.494372 44.885421 -6.084843 15.243161 2.419360 49.253036 0.743256 -31.528556 -74.930835 24535 24279 
-43.778487 -31.341432 32.266570 72.206312 17.888160 -22.110494 -35.148374 10.017745 -44.921268 -2.712594 8.855146 -23.402042 23.120042 -5.407983 67.730388 -23.261689 24536 24280 
-69.773775 -40.647078 -4.498215 31.960352 56.773328 -0.569856 -46.044606 72.799850 39.639334 8.622932 11.008857 -22.992490 9.539699 -25.160267 9.199552 -29.857616 24537 24281 
-103.268426 -62.384664 -58.877866 115.725781 78.503516 3.470364 -72.196874 99.028169 -8.130415 -43.161745 18.437697 -39.627595 -0.815845 -32.016720 89.478424 15.836199 24538 24282 
-107.065846 -68.794950 -86.530221 22.123796 125.297542 37.260669 -67.335980 145.044991 52.431826 -8.882834 35.543616 10.608899 -26.326255 -53.122674 -11.007275 0.754697 24539 24283 
-123.743125 -97.806286 -129.665824 104.474489 120.743369 39.638289 -80.310482 166.669569 74.735598 -379.523155 69.235307 51.193808 29.288610 -0.646592 75.717124 79.999301 24540 24284 
-90.167500 -89.195518 -139.846148 9.284508 118.494806 54.662225 -60.986406 197.754032 101.875027 -502.703499 71.127212 86.465134 69.539355 23.578840 56.023307 94.094624 24541 24285 
-76.407317 -96.249995 -149.668980 39.017534 111.472786 54.064653 -49.185957 166.957276 8.180136 60.358264 -22.000702 -4.772153 -15.945163 -55.338687 13.282500 16.235804 24542 24286 
-40.836556 -73.410416 -122.274710 -29.131973 109.864634 58.104417 -22.924281 120.608885 -34.055397 281.677771 -54.787670 -23.949026 -56.733946 -77.942784 -17.501518 -16.707429 24543 24287 
-33.184065 -55.724141 -95.864531 -22.990850 104.592616 45.282943 -14.109779 71.997806 20.915861 50.692169 -8.884289 16.143003 -52.461193 -49.069712 6.479272 16.184889 24544 24288 
-15.471474 -40.479787 -66.137809 -27.736011 71.304380 31.351441 9.173782 37.995476 -19.583233 142.191098 -15.941377 -15.312113 -38.259309 -50.283884 -5.284658 2.473476 24545 24289 
4.010954 -16.158287 -39.295995 -21.777406 30.577160 11.767934 26.206178 4.669462 9.487733 45.153186 7.438480 3.230072 5.494159 -31.860695 -46.295557 7.352622 24546 24290 
14.879472 -5.334585 -18.043306 -17.905894 38.303687 7.892592 28.419778 -48.211744 -19.645039 73.002360 -21.273421 3.135196 17.473257 -14.364169 -63.751375 25.423190 24547 24291 
37.077022 11.572171 10.300755 -54.684639 13.918338 8.881180 48.787550 -75.852377 -6.330783 43.844056 -47.967186 -0.169560 27.022256 9.714600 -71.347769 45.234386 24548 24292 
56.544397 35.199353 39.877085 -20.546260 -62.252727 -8.366188 50.620144 -91.075803 -21.446744 11.807680 -60.955568 -34.066785 3.143080 21.829184 -10.766317 90.455471 24549 24293 
70.248369 62.610526 77.902990 -11.415162 -117.381028 -20.762619 37.528978 -98.732052 -10.026853 19.002285 -37.775868 -48.671095 -22.715682 8.156515 -1.943595 93.974293 24550 24294 
79.952083 79.313209 96.424754 16.898237 -150.237116 -39.450148 24.612761 -107.513779 -24.198263 -36.935922 -28.365730 -31.966490 -1.674699 7.942066 35.509489 79.689548 24551 24295 
88.144641 92.366231 109.313017 1.532860 -161.855551 -50.357869 21.119470 -100.262800 -37.122692 -33.191645 -49.113894 -2.909449 -0.390163 17.673784 58.969618 46.084442 24552 24296 
61.139409 80.003581 96.038889 34.007983 -143.076028 -57.301717 1.194642 -72.006759 -20.257204 -95.945830 11.598166 16.633595 -49.079752 7.592669 107.232547 22.225809 24553 24297 
26.857195 52.334100 66.681546 27.594081 -85.118092 -40.793468 -6.314592 -41.240769 -23.763189 -85.968824 -0.034932 23.806803 -57.432585 25.793557 107.633200 9.965970 24554 24298 
-6.903563 18.093760 28.959286 29.017116 -32.611066 -17.097520 -11.379105 -8.078907 -30.065486 -80.335957 -62.505221 16.801165 -6.617972 60.907198 75.395788 26.420486 24555 24299 
-38.603530 -16.375342 1.448277 45.670010 10.944095 0.155639 -27.704419 24.465270 -30.427983 -47.510191 -44.615325 -3.376551 19.833005 48.230836 28.870196 28.996012 24556 24300 
-56.193546 -35.308375 -16.836275 71.150590 36.021334 -2.550003 -52.979762 56.696037 -20.168399 -46.882559 -12.457076 5.423607 26.989492 39.706506 -21.299324 28.687753 24557 24301 
-65.275099 -48.881874 -43.705986 72.601107 56.981576 -0.817917 -59.935367 89.033560 -12.644530 -22.830891 5.163102 17.369643 19.181714 23.855779 -59.437148 29.342330 24558 24302 
-83.778440 -75.866986 -68.578122 62.985308 91.012250 23.066380 -48.525605 99.685216 -7.339486 -35.443450 9.612203 20.635309 20.088660 26.233378 -49.580989 15.794375 24559 24303 
-91.922233 -85.670662 -82.540485 56.791857 118.688727 35.079771 -52.286566 101.859591 2.840032 -174.159885 31.285482 31.732554 41.371072 34.605345 26.579178 5.746222 24560 24304 
-76.552656 -74.815225 -89.708232 29.618900 120.429775 37.026565 -51.578093 105.578966 -6.384430 -82.528754 21.045881 13.948233 22.914150 -1.960860 58.304519 -25.338739 24561 24305 
-53.042690 -60.449785 -84.662599 7.292398 98.495750 38.188224 -36.071502 90.250204 -25.171850 107.342987 -4.832044 -24.223011 -6.703840 -31.966103 35.996285 -50.442423 24562 24306 
-28.811412 -35.061023 -55.902770 -9.011691 65.360523 29.834913 -19.818781 53.410241 -4.860145 35.877413 13.068757 -14.995657 -0.546907 -19.956502 20.632155 -29.219115 24563 24307 
-9.700544 -17.066683 -35.777387 -19.244129 50.661256 15.874192 -11.234483 26.487779 2.411444 54.781246 8.527208 -17.181385 -9.913570 -25.319628 5.736629 -19.041945 24564 24308 
3.413782 -17.711458 -35.733133 -52.899511 62.642725 14.338869 15.506845 10.441881 16.413416 48.531305 9.242546 -12.489758 -16.475717 -23.563479 -10.164761 -11.493552 24565 24309 
22.983238 -7.696419 -29.742083 -81.618923 49.920425 8.305444 40.583583 -2.735266 21.437315 33.772997 0.043597 -4.813991 -28.404651 -1.916735 -19.998074 -0.120457 24566 24310 
37.498433 17.761617 -8.930948 -84.503275 24.566644 -1.632012 39.939983 -24.700442 18.290441 48.351319 -3.935022 -9.015711 -24.948351 10.337429 -34.657048 -4.423058 24567 24311 
35.930976 29.794180 15.468621 -60.346164 15.784849 -8.275220 30.262492 -58.619735 13.486654 10.333133 5.077124 6.298946 -19.319086 18.438193 -28.622740 -5.692224 24568 24312 
42.967480 34.910515 33.961760 -50.247164 -2.081739 -18.582625 28.636099 -69.564327 7.085324 39.294076 4.761848 14.003649 -54.081837 15.884778 -17.712842 -9.234997 24569 24313 
48.873115 38.579119 47.270844 -44.491341 -36.191787 -18.088621 32.394113 -68.345443 7.476000 17.759825 10.554547 12.033488 -39.939635 22.388873 -14.387107 -15.885992 24570 24314 
57.658784 51.834645 60.251310 -35.841039 -84.206369 -10.848033 45.796889 -84.646186 -11.300417 16.639076 1.067145 5.064346 5.246935 28.736087 -10.962016 -34.491155 24571 24315 
69.904149 76.614923 73.355324 -27.807368 -132.894397 -10.268100 54.661852 -103.566383 -11.397303 7.113707 -1.429365 13.056805 20.660208 24.715606 -19.937565 -32.782094 24572 24316 
58.498679 85.430376 73.953194 -3.064120 -142.282233 -18.567954 29.607308 -83.575251 -5.479556 24.014444 13.271631 35.194712 17.022292 2.044451 -54.901025 -31.166949 24573 24317 
42.246147 71.099526 56.331899 7.539042 -131.970670 -23.957660 16.868144 -38.156427 3.860182 20.080949 50.291874 56.182218 13.088142 -20.455684 -82.650907 -40.396775 24574 24318 
18.490929 32.359862 26.821606 8.714065 -87.238569 -4.440902 16.365181 -11.072172 6.486368 31.391615 48.648951 30.388059 9.799658 -23.252990 -65.799390 -37.662272 24575 24319 
-7.861539 5.622421 10.295625 12.022724 -23.811769 6.680491 -3.556345 0.608391 0.681861 38.470162 15.706927 10.038217 19.180473 -14.110567 -33.374849 -36.592223 24576 24320 
-20.716023 -7.092618 10.161230 32.052958 0.865106 -6.141562 -24.074339 14.945247 -4.960509 21.093192 16.167734 22.713699 30.151258 -22.752482 -20.130410 -42.282481 24577 24321 
-32.599252 -32.641633 -6.641790 45.471507 14.744946 -1.148663 -24.243632 37.058516 -7.498368 20.240721 16.053053 16.642609 18.720122 -27.883260 -1.407605 -34.867270 24578 24322 
-33.993530 -39.251199 -24.178804 41.934698 23.028681 6.412725 -32.504738 58.552167 -3.594247 -7.899288 8.260133 -1.203939 13.418200 -13.109938 21.253469 -17.124388 24579 24323 
-40.533715 -34.255244 -25.477009 41.792197 43.007652 9.224363 -57.549906 63.791661 3.254047 -47.873701 9.652421 -8.097698 18.621874 -0.569087 29.510246 -4.498102 24580 24324 
-47.400385 -34.933922 -29.616443 36.529968 62.204281 11.150217 -61.187974 63.254258 48.802751 -321.112149 50.954422 31.083227 51.910833 35.796078 60.967978 41.596860 24581 24325 
-38.549236 -29.829788 -33.790247 27.579294 50.849182 6.242602 -41.533331 59.031524 13.782009 -98.187824 15.021067 -1.783350 23.633652 3.317371 23.188421 21.028654 24582 24326 
-21.909793 -19.338662 -34.761124 8.253114 26.068375 3.699637 -11.746111 49.734565 -40.604649 220.209930 -39.041169 -47.414542 -23.258517 -35.879333 -12.490135 -21.521586 24583 24327 
-9.691695 -38.027997 -45.918169 -19.891589 28.411732 18.465226 15.798595 50.853896 -0.918877 -11.297863 -1.346288 -7.524745 -2.130546 -11.608259 28.114502 6.712077 24584 24328 
-4.272338 -40.942201 -35.660730 -29.572334 35.011650 17.099685 21.937080 36.399188 -12.278054 86.588356 -22.642246 -20.299834 -20.952345 -29.821298 15.776810 3.628611 24585 24329 
7.780578 -4.537071 -5.785424 -14.452225 0.228223 -6.848683 12.259433 11.355169 -15.058421 17.435087 -26.637537 -22.262206 20.551834 -1.186921 10.352629 16.805534 24586 24330 
18.715136 11.124139 4.459363 -3.296496 -35.527454 -11.047207 10.347356 5.225162 -18.941651 19.277253 -17.396813 -22.109982 26.946424 11.489461 -9.502865 10.238175 24587 24331 
22.579862 -0.658232 -6.253119 -21.347718 -15.584381 -2.374013 18.349438 5.288164 -16.253272 53.275207 -5.205675 -18.921759 -24.469553 11.644991 -3.507328 3.437389 24588 24332 
14.033246 -24.004926 -25.755592 -48.030194 53.726388 15.368342 25.714526 -11.051788 3.072210 10.573645 3.080627 -17.964424 -36.631076 23.658634 16.725955 -2.515572 24589 24333 
2.629218 -17.808581 -25.857415 -56.619495 87.721167 17.867623 25.500856 -33.433372 -1.455838 75.347956 -13.074994 -24.511957 -52.497927 15.031873 14.210402 -13.049515 24590 24334 
4.770063 -0.035134 -1.836041 -58.750739 71.753609 10.638167 35.979295 -62.519220 6.869372 -6.416571 -8.000643 -6.289383 -47.655422 26.728252 27.866807 6.897589 24591 24335 
5.997069 26.809083 45.981846 -35.464126 47.109819 -5.800479 22.504387 -107.137598 2.561257 29.426717 -14.623551 -12.163939 -35.050051 15.760107 10.234703 3.854757 24592 24336 
0.548727 45.811152 67.011748 1.181262 14.037053 -23.350854 -2.908480 -102.330608 15.955199 -2.746752 -12.209313 -10.447191 -19.077972 17.744179 -12.759199 23.541048 24593 24337 
15.000592 50.269866 52.176051 14.948722 -49.523786 -31.264647 3.179950 -54.786749 8.143258 17.659190 -26.813940 -33.999534 5.240809 28.336593 -33.925317 35.358941 24594 24338 
28.842719 50.244464 31.075408 13.437424 -78.003522 -34.211348 6.736833 -18.121979 -1.968087 -14.024154 -25.860241 -28.381661 35.768770 27.165052 -25.212763 32.513084 24595 24339 
21.154084 14.260006 0.596583 -0.603322 -43.132484 -7.399907 3.706953 11.418087 2.961373 -17.828924 1.449991 17.441467 -2.120852 -9.921010 -10.465581 18.483537 24596 24340 
9.888308 -10.218732 -4.756675 -2.836391 -20.239778 16.821331 -10.822498 22.164435 -3.002285 -18.032234 9.493788 29.809055 -12.644440 -25.911514 16.895191 3.392438 24597 24341 
-1.251975 -7.585462 8.205303 22.934519 -31.681564 10.963813 -18.078313 16.493680 -1.839893 -12.862059 -6.560155 11.257812 10.672413 -17.827038 20.860443 -3.701524 24598 24342 
-8.320301 -1.030340 12.503288 42.724281 -47.598421 3.440500 -17.011777 15.292771 8.108149 14.748800 6.077590 8.080710 4.649357 -22.956065 -5.201525 -13.507016 24599 24343 
-16.760932 -8.149066 -0.138860 30.532720 -12.746743 7.400583 -18.109080 17.971378 13.180855 -47.845769 28.777096 22.517170 19.333969 -15.435221 -6.984041 -13.544060 24600 24344 
-31.444811 -25.036001 -10.410163 18.354888 40.562970 14.117850 -10.888415 4.743682 16.371600 -116.523568 31.663873 28.541475 30.435540 3.535355 9.035409 -3.059684 24601 24345 
-34.144867 -27.099874 -10.839640 15.088348 49.281978 20.236678 -5.654667 -6.867957 5.541482 -17.672537 -2.673670 -9.631587 4.234901 1.504736 23.604936 -4.908261 24602 24346 
-13.964482 -7.513073 -2.098227 19.014583 -2.211260 3.850627 -1.143562 4.065395 -12.809014 62.088949 -29.056253 -30.261398 -4.122437 -5.168991 32.251733 -12.922590 24603 24347 
-0.311629 11.195603 7.994710 29.054077 -57.848463 -5.763949 0.517479 15.162171 -30.914980 -19.113928 -13.664556 7.139218 32.183250 5.555641 37.469876 -18.654521 24604 24348 
-2.139106 6.857386 -2.935636 22.102154 -50.356074 6.747860 4.912319 14.811097 -35.469111 39.264130 -7.185829 18.221324 19.926979 -9.564430 2.178595 -27.371659 24605 24349 
0.478597 4.204464 -8.664687 14.861265 -32.583175 5.072743 5.770196 10.860598 -12.033596 10.340910 9.057229 17.351275 9.394451 -6.366418 -13.371166 -14.372686 24606 24350 
12.202663 8.656730 -5.450654 9.090029 -34.474463 -6.304180 1.010287 15.269589 -11.058795 -2.215857 15.185508 15.133126 -0.598122 -0.901226 -4.612098 -10.932536 24607 24351 
16.487078 7.647844 -6.082627 4.743409 -16.055496 -14.003668 -7.059191 14.322651 -7.385568 -7.469135 28.069328 18.705015 -15.674563 -4.439109 -3.459037 -8.346930 24608 24352 
15.172066 1.474605 -1.882980 -4.978900 14.269167 -17.362583 -16.544563 9.853187 -1.109910 -25.151407 41.858366 4.116150 5.523468 -6.201921 -9.684108 -9.350638 24609 24353 
17.722264 -0.312460 2.504052 -21.154646 23.608199 -23.813232 -15.875350 17.321173 -2.231024 -7.365732 37.186071 17.676264 0.394221 -13.610033 -17.425863 -14.623903 24610 24354 
13.046510 6.752073 -3.939576 -23.283175 15.802471 -20.737463 -6.737014 19.096175 -16.808038 -12.299138 -7.616120 28.376250 0.389775 12.532700 3.378960 -7.954389 24611 24355 
2.496168 6.203449 -13.003472 -24.707078 22.702647 -8.523438 5.154231 9.677493 -32.925517 9.179846 -27.074863 -0.920992 13.608066 29.485855 14.520072 -5.872468 24612 24356 
-4.614789 4.825787 -12.828747 -26.557189 29.508746 -2.969436 9.392262 3.243367 -12.851070 1.018800 -11.095827 12.481856 8.431374 7.475367 -2.753644 -2.706856 24613 24357 
-11.865880 3.974143 -6.260892 -14.055893 22.578233 5.278776 7.456902 -7.105390 16.009839 20.108006 -9.601165 13.869431 -2.368462 -20.086945 -17.290279 -0.640425 24614 24358 
-19.122933 1.908405 4.480401 5.897812 24.464751 3.465604 1.651898 -22.745937 28.915286 14.655207 -8.650104 -1.404388 -0.537756 -21.955559 -10.074592 -0.948095 24615 24359 
-13.093882 -0.847628 1.632607 1.308786 22.126320 -3.543822 6.715177 -14.297558 28.599965 17.109444 -40.540159 -21.396156 19.804928 -2.372631 -3.110605 1.905213 24616 24360 
-10.243434 -13.291221 -9.269491 -13.051011 21.574016 6.864078 16.591598 0.825464 37.543852 10.222482 -34.535337 -30.218358 17.688134 -0.638593 -9.545411 9.483232 24617 24361 
-16.441884 -21.578260 -6.856672 -9.632949 24.487390 17.023178 13.770404 -0.771207 41.297637 5.506643 -23.500547 -35.024689 8.634256 -4.108054 -10.893269 18.088023 24618 24362 
-20.127330 -24.182543 -5.298290 -1.735385 23.965465 20.833196 12.763145 -6.218258 39.356238 22.882345 -22.804456 -48.306421 0.738581 -3.068425 -12.744375 23.946513 24619 24363 
-20.908144 -29.994544 -11.898008 -1.673815 43.749316 25.042832 10.599323 -14.916959 37.303998 20.375541 6.023791 -31.021838 -30.572514 -4.117850 -22.291365 24.300237 24620 24364 
-8.548355 -17.824869 -4.916158 0.221432 27.905630 16.214371 0.971431 -14.023482 25.228133 -1.932910 30.948962 -3.641423 -42.132928 -4.303274 -18.506087 14.339527 24621 24365 
12.605452 13.070918 8.110416 7.666442 -27.170792 -4.056241 -9.733223 -0.492971 13.087026 -15.927749 41.717247 18.637031 -42.685269 -15.368348 2.842132 -2.302071 24622 24366 
21.215167 25.811353 7.593918 2.843963 -31.813672 -15.583453 -17.085095 7.017819 6.151698 -6.312949 20.975733 9.069780 -33.207635 -14.382626 24.062550 -6.356550 24623 24367 
28.628003 28.630368 8.867617 1.252453 -34.460920 -33.439906 -16.972587 17.494973 3.140130 -7.786111 -2.104312 -16.140501 -0.309593 1.979644 24.691925 -3.471181 24624 24368 
31.243568 18.431570 8.056192 6.677072 -51.181107 -28.625706 -6.508614 21.907025 7.127996 7.682530 -4.264423 -9.677972 -7.669070 10.298720 -12.431946 8.934164 24625 24369 
20.594157 -2.782100 -1.554584 -2.581453 -24.809837 0.011242 1.095633 10.026941 12.476934 24.247549 -5.075920 1.089335 -23.304040 13.836749 -53.515949 30.245342 24626 24370 
17.688489 0.203368 -2.149342 -12.420686 -10.745204 3.835256 1.556577 2.031542 12.463745 24.271523 -13.520826 -12.229043 -16.992465 14.918417 -52.300715 43.389363 24627 24371 
20.269750 25.648902 13.966816 2.149813 -68.164189 -1.838403 0.432684 7.534627 3.103049 0.585994 -7.170826 -18.325515 -7.211068 12.038546 -13.635069 30.614888 24628 24372 
20.970591 49.066613 28.842182 24.258935 -121.384026 -8.000249 -4.363466 10.609419 -23.971322 -14.974516 -4.244796 -4.900692 20.068878 1.919908 45.532457 -19.429917 24629 24373 
9.031754 25.473404 18.954794 25.830527 -90.800125 7.528880 2.254460 1.726306 -45.134089 -18.881558 -21.984149 -3.565077 43.094173 11.502967 74.613514 -39.645781 24630 24374 
-5.770349 -8.244860 2.737690 13.126152 -19.892034 20.362827 8.999308 -11.318733 -51.467735 -50.680380 -27.978717 5.768769 53.189125 35.729595 49.722481 -14.283140 24631 24375 
-9.965651 -8.412097 3.892362 4.726407 28.747117 4.485748 3.953881 -27.427766 -38.842562 -39.131239 -7.265789 17.796261 36.650668 15.840336 8.408789 6.543535 24632 24376 
-6.656619 -14.313938 1.860842 0.244104 42.921806 -2.946358 4.186965 -25.296801 -19.105787 2.220617 -5.516027 -7.511709 28.708557 2.151432 -21.099770 20.152688 24633 24377 
-2.856994 -17.106150 -3.057064 -4.627381 49.576688 -4.852493 2.689047 -19.765653 -20.863596 -32.446187 -0.233834 -11.633050 41.876231 20.848612 -17.758041 20.209865 24634 24378 
-4.278256 -6.543864 2.771632 -5.747392 44.011379 -6.702739 -2.356882 -21.153879 -20.849058 -66.571771 28.873688 14.911017 19.820092 15.440744 -1.551136 9.926424 24635 24379 
-8.972415 3.324841 8.719120 -0.511176 22.722272 -7.531699 -1.956764 -15.794178 -10.649218 -21.592853 22.966094 15.090226 -31.091186 -8.005153 39.370052 -6.087962 24636 24380 
-17.306618 2.378196 14.231512 7.943844 11.955506 -9.064287 -1.041812 -9.096341 -9.120688 8.289929 8.610115 1.316461 -65.097230 -23.180332 108.985853 -29.804107 24637 24381 
-23.989891 -11.591585 11.322161 8.028412 30.001992 -4.638903 -2.992031 -6.140154 -19.012292 -13.412749 -3.567351 -3.310054 -45.787615 -7.016750 131.689631 -39.582819 24638 24382 
-21.530197 -26.342497 -9.461181 -5.925825 46.045617 5.513836 7.369960 4.330288 -19.017625 -28.360050 -7.810477 0.285900 -14.779881 13.389660 79.702862 -23.410389 24639 24383 
-6.432979 -37.476598 -23.246573 -15.458008 21.383917 11.927570 16.170417 33.132254 -5.322932 -31.849323 7.714915 8.351088 -5.023957 13.541276 5.466823 7.122109 24640 24384 
5.021736 -39.409888 -27.609085 -19.718700 6.185366 15.221192 4.502101 55.807278 6.265569 -23.726615 43.855878 22.652771 -6.574634 -1.708399 -65.355543 24.590974 24641 24385 
7.514806 -30.479509 -28.992071 -22.199194 7.788249 14.547327 -10.910029 62.730421 -2.200772 -5.459328 25.530995 34.733225 2.185721 -2.219275 -76.298659 23.728094 24642 24386 
5.329786 -18.971401 -28.807990 -24.658723 18.763539 14.177140 -16.268925 50.436574 -11.918708 14.518529 -16.617987 31.166862 10.517597 2.791645 -42.082551 11.624614 24643 24387 
1.797603 -12.678506 -36.896097 -29.164415 34.457330 16.142780 -5.274138 31.615443 5.636426 29.700256 18.198977 28.216103 -28.927492 -24.051374 -28.395544 -0.377352 24644 24388 
2.449961 -0.074864 -26.376081 -15.034310 18.510788 6.037465 0.698269 13.788773 12.405840 30.126577 16.625047 24.702925 -46.453491 -23.679489 -6.664671 -7.062740 24645 24389 
-12.555337 0.727706 -8.686732 -3.191761 26.969226 18.951579 -1.539614 -20.675067 8.551365 29.080526 15.664272 16.575863 -26.025173 -17.280805 -10.680422 -15.885627 24646 24390 
-27.309974 -12.424599 -8.015774 -4.993514 48.763795 43.244792 5.071802 -44.336528 9.869978 24.847088 23.878928 13.060403 -20.532505 -19.429019 -20.630091 -11.064782 24647 24391 
-5.662705 3.477809 -10.151808 -0.453353 -10.615979 29.170679 14.334855 -20.099499 11.360937 27.465263 2.997428 4.853663 -11.775087 -7.172814 -26.445581 -1.283810 24648 24392 
8.609321 14.657118 -19.993837 3.330424 -39.979548 20.364789 17.675427 -4.663693 9.176782 25.580501 -6.097139 1.819202 22.264719 1.939213 -51.970868 -2.712411 24649 24393 
0.459993 3.322918 -24.266029 -11.735505 24.692992 17.091878 11.868845 -21.435092 9.104728 27.321110 -2.598144 -1.844848 43.611636 2.619723 -63.848360 -14.365844 24650 24394 
7.389125 16.117315 2.480520 -12.088988 25.299631 -15.764163 -2.627356 -20.806084 13.776927 42.963216 19.733960 1.270273 26.200775 -16.902622 -51.649373 -35.393156 24651 24395 
14.562566 25.749179 23.011565 3.145699 -14.499788 -37.264190 -6.642944 -8.062088 3.024606 24.247917 4.863419 10.712305 27.287775 -12.409688 -9.788976 -47.937357 24652 24396 
13.146187 19.306964 26.709435 8.745958 -24.344194 -38.943022 -4.414002 -0.207325 -8.567517 11.899219 -12.185959 -2.072349 33.186655 -3.075207 25.493737 -44.678579 24653 24397 
0.982169 17.599955 32.878807 17.168086 -7.294364 -33.091179 -14.936157 -13.307317 -4.226397 31.708079 -16.111314 -25.245742 22.460653 -10.667918 26.273524 -24.190885 24654 24398 
-8.083323 15.755857 35.974408 29.002246 -11.516730 -25.202492 -15.615586 -20.314378 2.945388 10.495265 -14.863293 -24.988131 19.780118 -3.029635 0.935055 8.725234 24655 24399 
-8.249811 15.881345 36.723449 44.717488 -51.470223 -19.980667 -3.097745 -14.523836 0.448465 -34.034743 -8.594874 -17.019935 39.926153 19.776837 -34.059835 33.557932 24656 24400 
-13.851309 13.301502 23.396885 39.075474 -39.907030 -12.357255 6.239815 -15.898082 4.093550 -36.867444 -16.755291 -23.841787 53.115301 30.217928 -51.485517 41.523260 24657 24401 
-5.411572 20.838573 19.447574 38.408107 -48.924659 -19.238126 3.700423 -8.820319 10.123789 -19.488379 -9.037967 -18.394167 36.056766 7.674470 -37.200548 30.266038 24658 24402 
4.563698 25.294438 26.701346 44.349096 -69.276468 -23.891707 -0.395022 -7.345381 11.038392 -6.182731 -2.998977 -11.135598 -3.316448 -12.187137 7.233006 17.549493 24659 24403 
6.678423 8.249178 8.695225 16.733980 -42.089757 -7.488784 10.648188 -1.426452 19.538980 5.096541 -4.983094 -8.491044 -54.150462 -12.149838 38.067456 17.071461 24660 24404 
11.698674 -9.616650 -8.532594 -9.584556 -8.644543 2.394296 18.816216 3.469156 22.861409 4.346606 -8.484546 -5.727629 -52.038459 -0.913504 27.788653 12.167471 24661 24405 
10.249817 -15.919997 -3.589435 -11.297462 23.900516 1.938707 6.098987 -11.381132 15.245589 3.998835 -6.993557 -9.768070 -11.054993 2.186649 8.605800 -2.220253 24662 24406 
8.414270 -13.484855 3.198719 -10.406392 35.927226 2.434078 -9.413082 -16.669964 14.203373 13.161859 -1.295167 -8.513762 -3.801940 0.194719 -7.614980 -6.334102 24663 24407 
9.570174 0.477777 11.377166 -12.341816 31.670730 -6.191614 -21.573931 -12.988486 21.815104 29.252200 -6.228754 -5.224813 -29.829966 5.615307 -21.101416 5.702338 24664 24408 
7.448811 7.325158 6.159680 -26.365977 31.250943 -1.835979 -20.522055 -3.460581 13.363951 37.361090 -14.084095 -11.677150 -26.091836 10.191329 -16.769920 7.706631 24665 24409 
2.795336 1.430773 -3.481229 -30.440824 18.185192 8.492616 -7.851579 10.869714 -0.751638 21.392939 -16.857982 -6.136239 -8.348335 5.650499 8.369201 -3.318445 24666 24410 
-12.371045 -0.465160 -1.948899 -11.848240 22.008467 12.983447 -7.300120 -1.058451 -8.356543 8.536432 -13.963731 -2.600192 -0.915681 -0.563335 28.123339 -10.260287 24667 24411 
-20.117458 -3.202533 2.964175 -3.626979 34.797587 13.304195 -8.963298 -15.155689 -14.415762 6.881885 -27.048267 -11.313288 19.193019 2.815889 30.146576 -6.260052 24668 24412 
-9.362292 2.770350 11.205286 7.678791 9.429808 -4.460300 -10.636636 -6.625006 -14.625441 -1.385356 -47.234003 -6.124853 24.770753 10.896546 25.344239 8.358116 24669 24413 
-4.521584 5.422620 9.426302 18.069334 2.456059 -10.958594 -13.732092 -6.162045 -15.406804 -14.150473 -39.998164 -9.052724 18.888355 18.684322 26.939654 14.095835 24670 24414 
-1.524488 2.991766 5.033442 25.312227 -2.505576 -10.501258 -14.736340 -4.069772 -8.227951 -19.720510 1.540106 -10.317110 -2.869965 7.573556 27.172866 4.849009 24671 24415 
4.867449 -4.503847 -3.394914 8.258776 -9.441608 -8.590315 0.361105 12.443354 -6.853461 -25.831924 23.400784 2.782333 -18.882751 6.519958 19.347860 -0.482799 24672 24416 
9.943623 -12.158401 -5.893571 -11.832759 -8.710071 -2.068130 9.114673 21.604636 -11.816501 -33.946735 21.379540 12.281184 -10.368763 10.989391 16.826778 -5.344895 24673 24417 
7.105246 -15.532009 -9.860075 -13.114805 -12.995477 10.138113 9.435480 24.823527 -1.611825 -18.729518 38.312356 17.051167 -18.836248 -12.099015 8.266184 -12.353101 24674 24418 
-1.991711 -29.435246 -22.007787 -27.610184 9.196120 29.042522 19.304467 23.501820 2.055599 2.150346 43.002995 14.445117 -17.705499 -26.050687 2.297464 -20.195334 24675 24419 
-14.773516 -39.122522 -18.969413 -30.190761 42.358471 35.034971 20.291504 5.371266 -9.877217 -1.425757 27.487319 5.224784 23.410540 -14.170924 -1.613388 -29.035358 24676 24420 
-18.164039 -24.943441 -5.122641 -9.160440 19.411404 24.374371 18.388235 -4.783450 -7.387281 -1.907957 22.518608 13.232996 16.175837 -8.522870 -14.203933 -19.905399 24677 24421 
-0.256058 10.696360 5.779516 14.421333 -58.613498 4.619720 12.726816 10.625811 5.875120 9.404256 27.388593 22.524205 -26.562507 -14.099524 -18.522140 -6.008003 24678 24422 
5.218195 28.668937 7.261811 16.070479 -68.746983 -7.874734 5.341253 14.061040 4.638153 9.549465 13.097928 8.833436 -17.769559 -1.137292 -16.753984 -0.458147 24679 24423 
3.608317 25.883176 2.560706 7.596735 -37.239468 -11.462980 2.996703 6.056812 6.069626 3.938246 3.066449 11.292852 -22.162204 5.298987 -13.980091 6.476134 24680 24424 
8.728754 24.603956 -4.102228 6.279090 -24.059167 -15.029352 2.377356 1.201590 10.502935 -5.282140 -1.985394 13.563028 -21.435036 2.855894 -10.040124 11.820837 24681 24425 
10.273765 17.164033 -10.002638 10.916880 -15.020278 -13.972708 -0.046947 0.687894 -5.768002 -17.231279 -9.328066 3.249373 22.423795 9.282652 -7.190898 4.562425 24682 24426 
8.030679 -10.230333 -23.867228 -0.162801 -14.136526 12.687540 13.475363 14.203306 -21.877641 -20.437872 3.467656 4.901511 37.569915 6.649777 -8.873525 -1.399821 24683 24427 
1.896765 -10.650604 -20.803680 -9.653773 1.574969 19.624953 10.680709 7.330660 -1.676969 -19.189760 18.767640 5.686633 14.175445 -11.843210 -17.398076 11.478296 24684 24428 
-2.106696 4.697823 -16.453449 -8.305042 30.085081 8.463737 -8.801557 -7.579897 6.826984 -15.488449 12.023427 -0.019070 5.209388 -16.077986 -6.735215 14.260921 24685 24429 
1.773144 -0.009057 -21.170163 -14.910376 30.603200 9.941037 -7.606181 1.378397 -9.172403 4.306215 -21.881069 -10.769820 8.957339 -2.849094 21.482094 9.926738 24686 24430 
10.328160 7.714025 -6.232011 -11.110193 4.221185 -3.992082 -11.111302 10.182218 -11.013289 10.620369 -33.524673 -16.198083 1.514761 5.665243 35.818213 7.117460 24687 24431 
7.258629 6.053785 3.048030 -10.547467 10.310559 -9.069373 -14.536470 7.482306 -15.060618 8.921046 -30.205877 -15.567596 -14.481065 18.693087 37.859982 9.841041 24688 24432 
-1.855498 -2.678611 -1.229277 -15.682325 38.495399 -1.010085 -14.847063 -1.192539 -9.267739 5.186119 -27.439572 -4.582303 -31.493250 20.848054 19.958893 26.789798 24689 24433 
0.472712 -2.919001 -8.066159 -18.949012 32.029974 3.280099 -7.955671 2.107057 -10.718543 -18.258967 -21.202204 7.147148 -3.424481 19.811841 7.141859 19.503348 24690 24434 
-0.619853 -6.304806 -11.292947 -6.199101 15.066495 -2.101264 -11.134606 22.586082 -6.639405 -5.074134 -3.539450 13.422336 2.558113 -1.213171 -2.564988 3.050698 24691 24435 
-65.704222 -63.856125 -65.059937 57.659228 76.935969 16.316567 -66.662433 110.370953 10.394288 1.364311 15.195780 19.420785 -6.905673 -16.587594 -20.001277 -2.880620 24692 24436 
-96.489523 -97.007990 -110.223108 70.240630 113.966538 39.907410 -83.894821 163.500864 3.846122 -18.026590 8.353050 7.807857 29.595351 -4.708625 -15.629524 -11.237641 24693 24437 
-37.649235 -55.923021 -80.021753 -0.576648 66.384693 33.768583 -24.253651 98.271031 1.283651 -7.427289 20.423172 0.484594 19.162041 -7.520787 -10.460576 -15.944807 24694 24438 
-8.125163 -38.041300 -58.204624 -35.263747 43.614244 28.284893 8.794056 58.941641 5.852522 20.338207 19.993361 -12.679199 -13.121038 -6.382127 5.965847 -19.967573 24695 24439 
27.096431 0.505057 -14.184113 -58.515096 -4.014138 10.185296 39.622972 -0.696410 5.160860 31.500550 6.515106 -23.826934 -14.833962 -3.558920 21.237097 -22.193797 24696 24440 
57.810601 44.303341 49.710126 -69.193599 -48.681080 -12.007217 67.410270 -89.352441 5.899534 12.873850 4.892248 -13.943274 -4.739236 -0.096412 11.649604 -16.536314 24697 24441 
74.923614 67.445346 89.891426 -80.852075 -63.731988 -25.070642 82.370984 -144.976664 18.049817 -3.085536 3.549795 -0.123061 -16.178837 -2.665814 -2.605331 3.058968 24698 24442 
94.457764 94.093130 126.646120 -91.654515 -90.255895 -39.412447 100.226631 -194.100788 21.826813 -8.906589 7.861361 23.190211 -28.370129 -11.593818 -23.080062 19.072212 24699 24443 
98.561995 123.586565 165.290959 -52.500843 -134.940854 -65.435208 90.201418 -224.764031 13.542219 -9.525059 -3.343162 23.562281 11.582230 -15.576634 -38.850364 18.608489 24700 24444 
95.727880 132.206260 182.867903 -5.995160 -168.018442 -83.350187 74.345278 -227.783532 12.318088 -7.199965 -27.260275 -1.008436 37.370338 -7.249832 -26.450607 19.480690 24701 24445 
61.564903 97.741379 155.358976 35.365920 -127.059045 -69.423970 42.420013 -195.968175 14.161047 6.898998 -29.812072 -23.738180 13.894409 -2.216766 -0.833679 21.646243 24702 24446 
27.836524 72.133304 123.225909 65.942535 -88.557765 -60.601183 2.327956 -142.307279 12.859366 5.711402 -8.488497 -32.353146 0.097669 -9.008843 17.171113 14.010935 24703 24447 
3.225749 46.744503 110.729204 83.534558 -86.298721 -51.226625 -21.668502 -85.040167 8.191129 -6.955401 -1.332130 -40.350720 16.479247 -2.554175 23.672267 2.849782 24704 24448 
-27.797464 -16.134245 76.097658 81.459064 -48.165252 -8.615602 -28.006415 -28.837743 3.372480 -16.716124 11.078848 -38.889923 16.527434 9.988474 18.502201 -3.863390 24705 24449 
-58.638396 -72.212253 4.920759 78.951075 14.498841 25.795283 -42.736403 49.421095 -20.049972 -42.339121 8.360969 -19.161148 18.868048 34.940668 29.154167 -9.773611 24706 24450 
-83.161348 -77.269796 -48.594304 111.300744 39.638816 17.184944 -88.234080 129.135024 -32.327041 -42.758978 1.502842 2.107318 26.541699 35.101460 26.676283 -16.843583 24707 24451 
-117.553943 -93.917069 -95.502218 124.028578 117.693623 22.877073 -129.942268 172.316224 -16.240788 -17.256793 18.003589 23.963879 -2.506902 8.063476 1.828179 -15.854639 24708 24452 
-141.790162 -135.583244 -166.740870 73.223488 224.920199 57.055168 -127.456045 216.371465 -9.660140 4.665023 13.952408 22.640591 -17.042490 3.813097 -12.668618 -5.699871 24709 24453 
-137.678058 -151.568600 -208.580474 39.648806 233.899998 74.460278 -101.176904 250.994953 -4.069364 15.233207 4.707221 17.408100 -28.719582 5.530163 -15.401464 5.311718 24710 24454 
-117.699499 -141.826919 -211.641429 19.880278 201.641254 83.084832 -76.343143 242.904626 5.616608 31.413294 0.686207 8.201684 -38.715266 -3.458807 -10.896691 7.152971 24711 24455 
-49.576654 -83.351638 -173.287785 -25.893235 92.445895 68.154663 -30.949238 202.457992 4.770067 27.584733 -5.862823 -0.185388 -13.277801 -3.382752 -10.125851 0.479815 24712 24456 
13.773060 -15.737704 -108.186049 -48.785079 -30.068128 38.545629 6.658848 143.799424 3.310859 16.428171 -12.324307 4.589822 -12.558166 -1.343631 4.257593 -2.360340 24713 24457 
20.234986 -3.651587 -75.402353 -62.143755 -36.227807 31.985980 19.726657 105.477880 7.834630 34.910688 -8.200716 -4.075073 -24.542433 -9.303931 6.893741 -3.516906 24714 24458 
24.495907 5.082743 -52.709125 -84.049504 -13.557446 26.235713 38.276896 56.224816 9.744653 38.953096 3.333337 -3.884103 -19.396024 -11.449574 -9.340463 -7.960923 24715 24459 
41.506620 29.717797 -15.000309 -84.969967 -22.795525 5.901796 53.596021 -7.956433 3.642098 21.779632 11.240665 14.915450 -7.088552 -5.767924 -32.086020 -6.635349 24716 24460 
70.739085 58.870208 33.559421 -84.018435 -54.829602 -16.669743 64.774512 -72.425445 -6.092242 2.665736 -1.496057 22.851907 25.536489 9.476492 -53.257513 0.315189 24717 24461 
89.774650 78.091291 77.095298 -89.909370 -70.196294 -28.654474 69.510962 -125.712063 -5.302874 9.157965 -0.228063 20.149189 34.070159 -0.285716 -54.768494 -2.792165 24718 24462 
94.081999 84.808599 108.808104 -82.970840 -83.740186 -38.153249 73.476816 -156.311243 -1.133677 29.267610 23.977296 24.287920 13.620653 -25.870520 -49.199420 -14.949861 24719 24463 
96.055429 101.229531 133.430052 -57.343366 -126.933126 -52.198639 77.663562 -171.903442 -10.248016 27.471762 18.409454 20.482655 17.274367 -27.519182 -16.551103 -29.319936 24720 24464 
81.236333 106.320455 144.657055 -25.490656 -154.116054 -55.160240 73.249693 -170.696586 -19.066100 2.647853 -1.615276 12.284412 22.917961 -13.118910 30.586457 -34.636397 24721 24465 
53.206663 85.896290 133.256099 7.888199 -126.173172 -45.534421 57.115772 -165.655431 -6.999183 -1.825799 -6.591866 1.684190 2.639537 -1.521238 35.885017 -23.270658 24722 24466 
19.728697 47.702094 90.177333 37.987541 -63.849686 -31.007845 29.817432 -130.555567 7.940213 21.132708 2.309405 -6.231167 -12.791938 -0.904185 3.012931 -14.467968 24723 24467 
8.687038 23.990028 42.969095 40.937920 -31.574371 -18.186305 13.390039 -80.213442 13.763891 23.576510 10.497575 6.493002 -12.688273 -5.306191 -23.669554 -12.666960 24724 24468 
0.459103 16.500876 12.365656 52.167719 -7.160047 -16.815913 -10.633397 -46.883996 24.900292 19.066789 37.471250 14.417720 -25.775464 -27.712265 -34.160732 -8.207592 24725 24469 
-17.954167 -10.811100 -10.376959 66.274656 40.257431 -15.699819 -37.214991 -14.475050 25.314645 8.947602 30.333304 -0.016172 -29.964710 -24.625989 -7.640979 -2.347700 24726 24470 
-33.286459 -52.979839 -44.609865 67.630270 64.576218 -6.052164 -49.132350 53.854188 8.516419 -8.724477 -9.928804 -13.455340 -6.129985 -0.326830 32.554466 -2.505447 24727 24471 
-52.252469 -77.384754 -77.792984 66.139257 86.329180 10.335175 -57.856152 102.482748 -22.070999 -28.620116 -15.146091 -7.495831 31.805948 4.863565 51.291836 -14.628312 24728 24472 
-74.870123 -96.474227 -93.961500 67.711512 127.052504 30.376336 -69.520614 109.686111 -43.880791 -61.624424 -26.049116 -2.895597 52.109509 17.890755 76.586011 -12.136347 24729 24473 
-86.365700 -99.402600 -98.664057 68.949475 133.884154 40.838048 -79.273652 120.034332 -26.348785 -72.423082 -21.895957 -8.410773 15.346713 23.555493 63.864878 26.311512 24730 24474 
-73.240342 -78.313809 -104.378432 38.239424 104.982857 47.958557 -64.558257 129.310002 -2.182374 -42.632080 -11.007677 -26.101833 -10.398787 20.526881 12.231505 59.564365 24731 24475 
-38.645378 -45.549167 -89.360879 -17.763793 63.859408 50.481260 -16.537543 93.516092 7.976177 -13.569235 -5.420314 -49.555336 -8.689791 20.287380 -26.515206 75.486325 24732 24476 
-22.925505 -21.620378 -51.922464 -52.750953 67.381496 45.789919 15.779131 20.268754 -2.406428 -13.506846 -8.151254 -40.899323 -6.651669 32.518032 -40.137533 79.235022 24733 24477 
-23.057804 -19.332974 -35.419966 -54.710290 82.517292 41.019661 13.510638 -4.526558 -19.989115 -27.966261 -54.243833 -1.478390 5.950275 45.701818 -6.667305 58.692809 24734 24478 
4.810373 2.850692 -19.317321 -63.113203 35.209536 23.815611 17.081573 -1.337262 -10.364516 -31.869812 -59.309661 15.515685 -9.947852 17.245113 47.684102 31.046942 24735 24479 
30.578197 26.194503 -1.322132 -67.469455 -17.673224 1.736731 23.074478 4.880902 3.321331 -13.735660 -42.024754 -4.727244 -27.197876 -3.844449 74.986267 13.222385 24736 24480 
49.115505 40.659929 18.493355 -63.002553 -55.942854 -14.815820 34.548224 -9.055786 -2.801581 0.858225 -28.838575 -19.726774 -11.682888 4.247508 58.866551 -0.922465 24737 24481 
47.215803 42.786976 41.083939 -57.018321 -46.553913 -19.095495 41.038797 -49.457786 -8.090449 7.830927 17.819090 -25.921484 8.607749 5.615305 15.194343 -21.055481 24738 24482 
42.578907 35.374485 65.242097 -49.046442 -41.305105 -21.526650 43.347005 -74.664296 -9.180232 25.696072 -1.117951 -23.499493 39.474769 19.284068 -22.570138 -28.087093 24739 24483 
48.686426 39.115533 102.267343 -27.838224 -75.970047 -35.214268 41.704497 -92.751259 -24.879105 17.462579 -57.943931 -8.524639 66.079024 44.295574 -6.441537 -30.047965 24740 24484 
37.235645 39.168550 115.626454 1.092956 -81.549794 -32.463401 30.774827 -109.885236 -19.566801 -9.596950 -31.983991 1.479481 24.095210 28.624277 33.079605 -26.130830 24741 24485 
29.831616 34.645053 96.001858 4.888904 -71.250643 -25.030599 24.756624 -93.842813 8.085144 -28.545121 12.893402 9.561474 -19.111434 -13.231408 45.328292 -14.980350 24742 24486 
22.472702 34.431622 74.069296 15.815771 -74.543080 -30.210407 10.270558 -52.306462 23.608301 -26.767570 27.852640 11.767547 -16.118925 -29.766622 19.834924 -10.410296 24743 24487 
9.866216 34.992071 60.082275 36.648431 -84.627796 -26.752241 1.175243 -31.384199 13.542947 -8.713117 22.949736 8.979206 -6.615552 -18.114607 -5.137425 -6.891189 24744 24488 
-8.463552 28.406907 44.375257 49.483675 -42.172269 -26.164376 -18.386783 -27.078860 5.385681 0.880370 11.303395 12.301269 -15.744630 -7.940763 -4.357686 -1.827636 24745 24489 
-20.157147 18.646091 21.720337 50.574962 10.535914 -24.975486 -39.119674 -17.224998 19.867841 16.753151 32.117705 28.420359 -54.790492 -21.663886 -28.904178 8.199499 24746 24490 
-18.883379 1.471028 -11.466050 50.809237 5.584259 -12.886219 -42.300422 27.671548 28.518641 29.374862 53.253272 35.786219 -49.289078 -35.667938 -63.595314 1.619337 24747 24491 
-21.158292 -20.733834 -39.598197 53.181105 4.656770 0.169578 -40.762672 64.245542 28.879662 27.762704 57.205276 25.635986 -16.412278 -33.316782 -79.625678 -10.128889 24748 24492 
-39.180081 -37.067398 -53.826514 58.136875 31.120713 15.611937 -46.604893 71.809361 5.350761 12.523881 47.873996 33.039368 3.025146 -14.698403 -70.322507 -16.792242 24749 24493 
-53.644158 -50.728768 -70.839289 50.448356 56.651718 25.524472 -49.105209 91.692879 -4.488255 8.659603 26.941915 34.106992 13.894217 -7.227931 -46.546378 -25.340163 24750 24494 
-45.861158 -60.856677 -86.902866 11.437438 75.664913 33.644125 -24.200377 97.074603 5.468774 17.457082 13.545478 14.029735 9.713342 -13.688896 -15.562945 -30.962570 24751 24495 
-23.538175 -46.276434 -72.463096 -25.166060 75.537719 30.606872 4.631167 56.668009 1.831347 11.536121 6.754823 6.563119 7.516254 -10.245277 4.463996 -28.420383 24752 24496 
-5.526677 -28.581779 -46.057898 -40.432900 67.995909 19.007320 14.042376 19.553649 9.649424 2.902800 -17.347933 -13.846807 8.439990 -4.412195 21.421072 -6.806352 24753 24497 
-5.703043 -26.650496 -32.101987 -18.594797 53.609111 13.976402 -2.402637 17.867447 18.884081 -4.360727 -31.743782 -29.781726 8.007575 2.291750 24.667041 12.035788 24754 24498 
4.557052 -12.136273 -16.839039 -9.909197 19.739660 6.620668 -6.506404 14.473534 21.351911 -2.492065 -20.405805 -19.717041 5.835523 10.554398 -17.632385 22.505464 24755 24499 
23.320106 7.229615 -11.469060 -35.434403 -13.214324 0.533699 1.675691 27.358674 19.396977 12.704819 5.870000 -1.167100 3.165478 4.554056 -70.557529 26.033299 24756 24500 
38.286561 14.355339 -16.990717 -82.538180 -33.220320 12.444088 21.784668 45.878561 17.097270 15.188991 24.050892 10.427277 3.576202 -5.938686 -88.401218 23.999272 24757 24501 
42.594417 15.374875 -27.063588 -113.375910 -39.197150 31.431631 45.471994 44.763731 9.980301 9.307499 -2.440764 -5.497099 6.553555 -2.876058 -41.289768 26.262334 24758 24502 
37.729506 15.515609 -32.790054 -93.258927 -44.704388 30.317776 54.921884 32.268593 -7.756036 13.957213 -12.883435 -21.294245 3.057869 -8.149481 21.859657 11.208458 24759 24503 
33.296869 25.934268 -4.671865 -46.283213 -63.909429 4.731101 49.503329 1.398940 -12.254642 16.002511 -1.176501 -27.438944 5.475506 -13.087315 40.807768 -8.328383 24760 24504 
24.056610 45.232069 41.545305 17.352090 -85.909278 -29.440218 19.324954 -32.161532 -13.823613 21.650455 -12.638432 -31.541684 19.772190 -0.271158 28.091251 -11.239010 24761 24505 
13.653293 45.299415 59.003682 52.698455 -83.653315 -41.486581 -1.424156 -44.090793 -10.848601 17.519008 -22.847173 -28.237093 27.989351 31.364254 -29.957257 15.017510 24762 24506 
-2.027938 30.751629 54.166340 76.752599 -58.263765 -43.416980 -17.660976 -40.300907 1.766479 -9.999649 -19.331452 -5.116575 13.565973 80.351429 -126.605535 65.369329 24763 24507 
-17.887815 11.650807 30.837670 86.367059 -13.029141 -34.238378 -23.731940 -39.968262 2.838558 -40.423911 -17.145414 21.418526 5.690106 125.625498 -195.424027 97.420664 24764 24508 
-21.201416 -0.901354 20.120817 78.372130 8.035506 -24.185485 -26.766775 -33.473423 31.318673 -241.455351 11.464776 62.568249 45.200755 176.572718 -235.625853 149.956034 24765 24509 
-14.189696 -2.361647 34.797910 75.196266 -3.181929 -26.773551 -36.030594 -27.456759 246.680415 136.750480 245.284673 -180.885376 -209.834105 -102.693092 -31.441757 -103.861238 24766 24510 
-13.376549 -16.229907 20.756443 43.382367 16.978845 -7.056497 -27.491599 -16.963103 330.913306 88.633443 396.215714 -243.664356 -301.895624 -288.144628 309.089224 -291.147078 24767 24511 
-12.844824 -21.976564 -0.202350 9.836657 35.863290 4.282231 -17.502847 2.544407 -119.930592 -308.634234 -1.902410 163.232171 96.270772 -18.030323 235.054908 -46.060291 24768 24512 
-12.406905 -16.197394 -13.554260 2.331007 44.787043 4.754975 -20.772632 11.058166 -268.238520 170.202994 -178.188766 138.594929 106.718111 -33.030298 125.270374 -61.328825 24769 24513 
-5.456376 -3.049380 -5.478375 -9.288192 45.315332 5.793882 -19.258570 -8.578322 -102.427316 -5.554278 -48.984332 74.313316 52.314936 -42.208733 121.669363 -49.122956 24770 24514 
17.566136 20.274869 35.330658 -36.880233 32.079255 -6.777299 6.265746 -67.859132 -150.882117 39.056283 -108.569873 113.599066 81.859359 4.320258 10.194163 10.422861 24771 24515 
31.516756 29.930268 63.441646 -56.313308 21.545070 -12.955380 35.858663 -113.023716 -90.522746 82.072576 -56.021303 55.469363 19.453482 -48.786710 86.512147 -48.176808 24772 24516 
34.541248 35.347524 67.991829 -32.063282 -20.203969 -23.305570 40.819481 -103.127261 -99.958350 18.653615 -65.113365 65.069800 27.532784 -51.793014 164.062133 -58.453601 24773 24517 
27.972968 39.760852 48.357106 5.849392 -66.822650 -18.823905 29.048344 -65.342108 -80.215999 115.550115 -56.280350 0.528455 -10.363373 -106.527167 247.243749 -109.935430 24774 24518 
4.693336 21.471539 25.100905 16.497882 -51.044764 7.313827 14.623525 -38.656249 -87.562260 202.656009 -81.422280 -33.219967 -37.560870 -134.280387 308.357811 -136.968056 24775 24519 
-26.602600 -13.551698 -9.831992 23.635150 8.405033 26.354735 -2.145435 -6.263193 -75.821097 250.995117 -101.570335 -56.013532 -64.598588 -144.349008 330.959359 -139.601915 24776 24520 
-55.633474 -49.383879 -73.942953 36.168638 64.432570 44.513395 -13.136634 46.982338 -39.274523 241.110460 -97.006341 -74.327892 -52.554832 -134.499514 279.548283 -122.995642 24777 24521 
-75.369022 -76.336551 -106.723784 21.710625 121.988026 55.025835 -18.063216 77.768086 -57.139844 359.967453 -148.703544 -107.721844 -3.901851 -91.370630 136.415017 -87.544757 24778 24522 
-86.100244 -90.714785 -106.849729 -1.341515 152.911620 51.886261 -31.925179 112.133570 27.800881 -127.846299 -72.599023 -72.668163 92.800091 51.047803 59.287141 42.177569 24779 24523 
-94.605371 -97.138935 -114.020815 10.118824 159.147637 50.353448 -54.203560 140.348772 14.714937 38.632323 -54.405160 -62.311819 12.224988 71.118841 -86.919201 66.945090 24780 24524 
-94.418234 -100.928906 -140.248830 5.778714 172.602368 65.943991 -55.900220 147.171116 79.631579 -146.959533 11.241501 -10.736444 -32.428446 117.233481 -154.464506 136.482368 24781 24525 
-63.177843 -94.415619 -172.977467 -34.476916 141.117844 79.306440 -17.391471 162.015031 51.623584 4.885276 -32.956963 -20.143819 -5.155726 141.726110 -302.325788 162.347326 24782 24526 
-22.136535 -72.811524 -153.536164 -78.215728 75.952408 73.926415 29.144741 147.676387 36.240038 137.165336 -68.972331 -47.618452 24.493761 155.586817 -418.137947 181.242778 24783 24527 
-0.661749 -54.755230 -87.427511 -76.422533 30.895713 49.632098 36.935209 101.804002 81.552724 -179.355875 -27.027920 -4.075942 84.369656 217.753680 -432.910640 259.694317 24784 24528 
21.772906 -16.138470 -21.053984 -37.875093 -32.868699 6.959455 28.030536 51.173349 62.501092 -123.604847 -17.304055 8.076793 84.488358 215.116441 -478.769809 249.496025 24785 24529 
42.829735 42.968389 63.897447 -5.571146 -112.753955 -36.885000 14.931827 -9.417296 -14.969231 -594.716199 415.375163 -29.807550 9.402164 146.976556 -99.373747 167.112844 24786 24530 
67.353416 76.037119 140.317404 -3.917595 -154.317853 -63.642365 19.576378 -81.406502 -64.676097 -153.724160 103.020188 -60.466116 -60.411761 98.206772 27.249956 110.801218 24787 24531 
106.648150 98.303817 144.058442 -42.629413 -179.185647 -67.614335 57.794032 -117.375045 141.615009 -262.280565 -226.607890 155.159474 143.354634 294.428486 -551.645229 305.976081 24788 24532 
140.761002 126.958403 143.031135 -84.505703 -202.023331 -68.466111 87.359838 -143.115235 132.940524 -483.898803 185.082183 155.158431 132.030938 211.502348 -565.556088 232.740466 24789 24533 
149.588618 147.639943 179.098667 -83.187653 -223.836617 -83.259148 96.210654 -182.254463 77.082800 -172.012592 -10.058665 114.610129 67.806260 83.238542 -261.828480 101.162006 24790 24534 
128.097551 146.946225 198.135936 -19.946594 -223.313378 -95.542010 70.450721 -204.828453 66.993380 -263.014430 112.309671 144.834058 67.924833 47.685827 -215.466767 38.733428 24791 24535 
86.506178 111.222155 182.216238 25.216418 -149.776601 -83.070466 33.856853 -206.170775 11.037807 -83.352577 94.631152 104.706672 -10.373297 -52.314726 10.148714 -74.483745 24792 24536 
43.248561 68.224914 139.440451 49.385219 -69.452126 -65.706814 1.702751 -166.842956 16.100003 -79.782913 53.482196 110.104907 -32.196476 -90.695544 142.733703 -119.745875 24793 24537 
15.983106 43.036355 93.180384 68.432272 -25.741419 -52.144928 -20.879034 -121.866735 -14.512073 18.343097 118.516320 46.321018 -76.216349 -160.514194 266.284684 -198.222504 24794 24538 
-7.026129 19.721479 52.876606 74.300906 9.975115 -34.163513 -30.677086 -85.007378 -65.174824 455.828269 -52.788853 -29.930317 -112.303962 -227.141895 299.267985 -267.756403 24795 24539 
-38.536927 -9.259550 26.030046 84.143720 36.666102 -15.885820 -47.740921 -35.416652 -96.917422 599.619061 -14.566270 -86.209015 -152.382042 -272.837025 327.351488 -304.058774 24796 24540 
-70.782726 -39.481034 -4.709580 96.713450 35.970870 3.631036 -65.007714 43.665699 1.007002 89.718555 -39.869475 -32.575267 -82.184089 -183.959976 439.835948 -191.972699 24797 24541 
-89.130875 -60.534085 -47.757132 112.318503 24.162286 17.032313 -77.409495 121.318484 -26.182138 271.867471 -35.048904 -82.258395 -85.767774 -180.162460 325.065168 -187.512968 24798 24542 
-109.983574 -85.124969 -97.384071 98.443158 76.287799 38.432233 -80.607853 159.937279 -26.315848 288.461887 -85.729526 -89.970726 -44.961571 -124.659542 225.118044 -141.942717 24799 24543 
-122.628154 -109.054167 -150.833575 58.931017 157.461390 68.982970 -80.918566 178.059084 51.817511 -262.052960 29.191999 -19.588015 52.165149 -12.184453 190.740669 -30.089900 24800 24544 
-100.666977 -115.877038 -188.076740 1.239177 194.522793 83.709149 -71.905135 197.054771 -11.288364 189.586249 -40.913635 -74.457208 -18.753648 -51.013345 57.079274 -50.239322 24801 24545 
-60.242174 -101.376045 -191.350203 -61.813757 180.111023 77.982476 -45.189503 201.878182 0.516948 131.289301 -29.576261 -29.808279 -23.148758 -12.518971 -39.641071 2.887090 24802 24546 
-23.166124 -68.361295 -153.398550 -110.770408 143.533681 63.492843 -12.621808 161.291662 53.263288 -350.679315 36.865184 38.590025 77.318104 91.360452 -40.382297 93.664559 24803 24547 
-12.824323 -47.298681 -116.455324 -142.472213 138.780264 64.210876 14.139169 101.920232 19.558774 -75.849434 -42.143788 -23.589380 63.768764 88.896683 -127.994707 97.353089 24804 24548 
-3.622099 -30.038615 -83.372486 -144.454124 123.227358 59.246849 32.471224 46.541893 55.969314 -303.944875 19.871734 8.478024 70.928023 136.734451 -133.663936 145.627265 24805 24549 
37.983863 19.491392 -39.463959 -107.963707 27.910189 17.587319 40.165431 4.289471 -4.644900 -364.234852 -38.389703 -21.866688 0.686374 92.811848 243.408761 92.229159 24806 24550 
74.696431 71.977480 18.381202 -42.467597 -86.303223 -25.995233 47.306530 -57.595591 -112.428782 199.038397 -114.204607 -116.507332 -110.702701 -11.396194 266.262237 -0.061018 24807 24551 
64.586905 75.839212 98.730081 42.200461 -131.735768 -46.054540 42.725718 -146.292069 55.307935 -122.203273 38.202488 61.508996 41.480475 157.475128 -411.597860 179.826112 24808 24552 
68.202617 89.579824 148.876733 66.417844 -163.394479 -61.267495 39.477953 -187.892997 85.930849 -213.004091 111.039912 104.435851 60.786634 141.979169 -453.799903 162.631579 24809 24553 
85.689554 107.233744 141.546421 22.541739 -175.980234 -57.130738 50.441317 -174.341802 22.728309 -40.370525 56.876471 41.994757 23.913550 39.867367 -191.662808 46.652880 24810 24554 
53.168039 61.402600 121.690054 13.782468 -112.397090 -24.955179 41.013048 -153.703940 22.193278 -103.477335 70.392420 47.121941 44.217697 48.471876 -163.144133 34.224256 24811 24555 
23.169690 35.844149 110.703053 28.366018 -72.857647 -19.279357 17.506275 -123.452181 -36.301141 3.741483 34.219668 24.891192 1.211748 -6.800590 22.074847 -43.037206 24812 24556 
12.366034 35.621935 85.704801 35.789047 -72.651082 -22.529181 2.928080 -77.229634 -24.100865 -15.459544 63.951366 49.856275 -20.366750 -54.790175 76.174240 -75.264547 24813 24557 
-5.558007 15.713652 51.139054 32.749626 -45.156813 -12.772689 4.113536 -40.228359 -29.463302 66.788326 65.274834 17.476554 -48.774066 -113.619253 159.448157 -117.131251 24814 24558 
-21.123206 7.276428 24.540075 37.764681 -11.012475 -18.203781 -6.283369 -12.958354 -95.922879 436.987009 2.847417 -51.565235 -76.101999 -168.945436 143.326912 -190.625789 24815 24559 
-33.122256 -6.330479 -2.183320 52.100630 6.439802 -17.061223 -16.816009 16.972856 -105.459562 469.404531 -10.659570 -58.852651 -77.226625 -182.144308 171.927377 -206.989193 24816 24560 
-44.967867 -29.798579 -43.438847 55.270596 41.855714 -2.799249 -32.181259 56.059491 -35.191824 83.002869 22.971013 -13.927334 -34.706147 -132.666774 251.054561 -140.536365 24817 24561 
-55.334726 -49.106727 -65.491951 55.598307 87.219962 4.380608 -61.125113 83.859640 -26.007572 141.742400 -11.092856 -29.636824 -39.818021 -112.618225 187.603978 -110.172880 24818 24562 
-74.840569 -67.210922 -60.204365 66.855293 110.600363 9.831591 -74.910610 89.879219 -26.869471 190.084096 -33.513925 -35.749236 -32.268845 -87.973106 111.053090 -84.762604 24819 24563 
-76.873055 -72.658448 -78.815328 59.576487 92.593902 24.801789 -56.476062 107.850715 -15.466065 196.043644 -20.260589 -31.427120 -12.842710 -73.323175 19.555378 -62.279361 24820 24564 
-48.930058 -52.161676 -81.546864 36.379934 30.384391 14.352471 -30.837528 132.359329 34.202772 -94.820692 -0.449761 -4.033938 44.401453 -14.635762 24.252882 11.083046 24821 24565 
-23.745321 -40.406450 -54.763715 11.683743 15.125303 3.773649 -34.408928 122.741719 65.444411 -180.592196 -10.296501 -13.033497 42.053113 27.372984 -11.240336 80.292022 24822 24566 
2.540850 -27.130923 -40.863737 -36.532686 28.830547 15.210219 -27.224705 85.170435 33.850859 9.041205 -50.743413 -49.637696 12.366846 32.629617 -64.403991 76.896573 24823 24567 
12.403697 -3.077454 -37.330135 -61.746518 35.900785 22.674114 -16.717480 47.892990 20.883399 -19.191038 -37.925297 -23.327165 22.498247 59.620333 -102.099214 79.540736 24824 24568 
13.442235 -4.831867 -46.293650 -75.057858 41.694398 38.210581 -1.906118 34.742279 52.728775 -227.512829 -5.171129 13.915796 7.364585 102.950022 -75.686927 131.411708 24825 24569 
28.895504 0.753013 -57.751878 -85.489157 20.297973 35.943270 30.361605 26.989670 -16.250879 -286.037346 -77.172599 -53.178300 -47.350907 70.866893 326.107339 83.015798 24826 24570 
43.191226 5.838485 -70.797236 -106.313548 19.982979 36.476573 69.142283 2.479238 -83.660632 301.353744 -136.732444 -94.665664 -24.697602 62.721764 -60.812881 36.493715 24827 24571 
46.510629 -2.067551 -72.616426 -128.901700 33.255588 48.430396 92.013676 -16.624612 37.782377 -62.371043 -5.995700 51.238785 133.574561 206.244112 -521.294669 160.821577 24828 24572 
54.527412 11.821324 -12.811112 -99.929421 9.356076 12.245673 71.168618 -46.378570 27.860136 -267.298666 10.514248 34.027501 74.524565 124.697529 -114.717158 110.391844 24829 24573 
58.394384 33.765685 53.967192 -50.236714 -49.608247 -34.037091 57.106277 -69.351486 29.981283 -34.158891 22.020429 33.157164 24.977094 63.204737 -219.441767 80.259952 24830 24574 
40.148328 34.729658 64.648525 -19.411870 -85.187235 -37.101777 60.615777 -58.441405 14.620632 -148.690741 -3.506821 49.141817 34.061344 59.766538 -64.970634 59.577865 24831 24575 
20.181551 25.312233 75.169165 -15.887449 -79.898257 -30.089710 51.917567 -46.705100 -9.864741 -16.832969 -22.481631 15.753760 20.225829 16.962588 -6.221992 2.459157 24832 24576 
-9.401128 6.773921 75.954625 -0.549950 -37.684553 -12.123341 32.504049 -55.473624 5.905696 -40.261986 33.543831 30.553605 10.423790 -11.534770 -3.890814 -24.739351 24833 24577 
-30.016133 2.373001 73.210590 38.823012 2.639134 -5.229518 -3.554347 -78.245738 -34.513367 33.121279 20.968820 17.175205 -22.107984 -54.995074 113.954090 -73.602968 24834 24578 
-21.050897 19.810541 75.165859 68.454837 -15.999420 -25.070171 -26.583728 -74.727020 37.370912 -341.869340 84.978530 74.724191 36.313854 0.473548 117.498180 -9.489875 24835 24579 
-13.013596 9.113674 40.475738 63.805831 -11.409679 -18.530384 -13.643793 -56.797791 -7.079905 -84.580820 38.051987 8.686633 -23.612449 -61.437684 195.818051 -65.845814 24836 24580 
-12.881522 -9.181119 6.675614 58.720801 13.191064 -17.529552 -8.837860 -30.157427 -69.316108 382.724149 -7.354049 -46.862553 -82.553252 -116.224258 65.956248 -126.370177 24837 24581 
-13.744407 -4.179078 -6.671332 74.468330 2.545651 -27.109723 -36.259874 10.950433 -34.743692 131.422571 21.557542 -15.646679 -61.073712 -84.956568 131.783660 -88.343123 24838 24582 
-21.517751 2.066928 -20.114409 68.033282 7.596740 -13.146391 -66.860903 43.942503 -75.337939 582.016833 -50.340246 -73.112234 -116.841150 -124.541794 -18.577862 -123.265608 24839 24583 
-35.654261 -16.517008 -49.857027 23.802010 58.170952 14.874146 -63.600019 68.781208 -51.186379 384.505848 -92.981887 -57.947937 -60.005712 -71.551120 20.350493 -71.183307 24840 24584 
-39.696585 -43.005837 -73.683411 -12.864986 91.817355 36.805885 -33.922591 74.550171 0.081399 52.577126 -62.441984 -28.408677 15.602649 -15.258545 48.736377 -10.888347 24841 24585 
-28.552224 -36.813412 -44.662874 7.420252 48.379385 19.697219 -18.701494 53.233148 26.887142 -47.873971 20.600590 -4.230747 7.376894 -14.000612 16.460767 -5.220063 24842 24586 
-32.307813 -30.634429 1.537739 45.207514 19.192088 11.195884 -19.162882 4.971897 4.354107 98.342448 6.708200 -12.569222 -25.681251 -30.449500 -21.449107 -19.255676 24843 24587 
-38.589836 -36.120705 14.504127 45.717404 8.407837 20.237894 0.667173 -14.823895 32.326400 -62.251279 -13.201187 6.314325 24.850514 15.349875 -36.168675 32.780028 24844 24588 
-2.166295 -13.586669 6.253407 2.684136 -38.746685 7.742107 27.784828 10.035171 98.707968 -578.603866 12.742932 62.955015 138.668133 107.326123 48.207425 109.996271 24845 24589 
38.275675 15.216443 -14.870634 -53.465019 -65.746056 4.475466 34.069013 42.045112 -178.690536 -54.236126 227.226906 255.695258 -121.682789 -163.537903 199.058321 -163.833130 24846 24590 
41.615549 19.051194 -22.876803 -85.141891 -45.658099 11.284446 37.299609 44.425994 -96.906982 163.522154 36.708808 59.453429 -38.879753 -51.502336 -15.060807 -57.334513 24847 24591 
21.309536 1.284061 -7.143662 -82.590766 -5.379343 21.539022 44.491097 6.490053 129.691527 89.995181 -246.488373 -225.277088 202.974979 221.832789 -370.704322 197.975307 24848 24592 
18.748620 15.621077 29.293527 -45.855861 -27.203834 7.711889 38.175632 -36.491049 14.363306 -282.211956 64.570350 70.184550 37.305424 85.224651 -55.311189 65.874864 24849 24593 
37.051254 51.577468 59.111775 -4.436637 -67.722663 -21.600160 7.938382 -61.919419 95.124221 -72.328530 -49.384471 -61.101010 27.841600 112.543639 -153.631411 100.935962 24850 24594 
37.998017 55.430590 54.018195 2.848545 -53.267686 -29.101830 -16.323237 -51.602593 70.413994 -41.771774 10.106212 -26.913735 -28.769812 35.246905 -76.165606 57.853815 24851 24595 
31.730577 48.981602 39.213202 -17.246463 -37.495762 -16.984711 -2.158529 -46.039917 64.208142 -107.965746 -24.765877 -13.801018 0.937382 27.918664 -21.755719 75.224171 24852 24596 
29.179174 41.014909 13.076410 -25.428260 -24.867281 6.170128 7.195211 -46.340290 48.526852 17.149498 -112.544541 -80.564334 29.020318 48.509956 -33.726613 83.628864 24853 24597 
23.404755 16.060402 -0.711875 -3.877469 0.762822 5.859117 -8.091809 -33.405943 2.952392 -129.554672 -1.681614 -3.315396 20.114722 24.732705 50.462006 36.289856 24854 24598 
12.747650 -10.279331 6.456963 28.509274 30.730210 -8.514948 -19.850896 -39.798923 65.502361 -364.501651 14.243442 -1.937009 101.842726 87.509351 11.546097 85.794683 24855 24599 
-9.122578 -22.406663 11.802814 73.745284 58.292515 -20.336440 -45.675408 -46.299524 14.092257 -288.645140 74.585568 46.989452 51.206822 14.012743 72.414188 15.344110 24856 24600 
-45.487296 -34.689043 16.253145 135.025247 76.543413 -25.621645 -80.692421 -41.331400 9.189783 -61.978884 1.137112 -23.979781 57.791730 12.650166 5.800156 -0.610282 24857 24601 
-59.564263 -41.928601 3.488830 148.391015 70.617599 -25.045131 -83.431578 -12.527870 33.465680 -490.657994 102.915738 90.560461 67.178098 47.223851 126.765201 22.548965 24858 24602 
-27.427865 -42.478436 -35.065734 85.087120 11.926573 -24.652402 -36.613826 69.224570 -48.394951 310.860450 -22.852853 -20.551856 -80.796979 -54.684948 -15.859230 -67.719632 24859 24603 
2.128703 -45.560923 -64.644019 -7.697050 -29.834533 -19.652888 12.560266 152.700444 -8.248886 -24.393071 48.391260 52.869723 -57.529631 -17.883865 35.803661 -29.009191 24860 24604 
-4.604767 -40.707095 -72.695407 -70.792244 12.934384 5.695753 9.021862 161.147515 12.386116 -174.868390 50.307839 58.083474 -5.189345 17.969399 50.995215 -9.684308 24861 24605 
-14.750346 -10.127984 -64.590071 -64.420290 18.128051 31.327624 -16.474761 120.907777 -76.373458 459.350761 -45.919156 -28.214018 -101.849042 -73.977663 -31.019426 -101.997998 24862 24606 
3.476198 21.882667 -41.593611 -58.956532 -48.465796 15.951905 7.676659 100.028508 -4.891095 -15.334718 32.856975 33.313131 -42.209136 -24.277101 47.629469 -27.087526 24863 24607 
36.125436 30.045890 -37.650813 -114.180013 -81.469786 3.423793 67.649028 96.056465 -14.503005 149.739846 -12.274337 -29.858163 -29.453125 -37.738413 9.786556 -35.699360 24864 24608 
47.118209 36.110789 -27.855046 -151.526808 -51.204954 9.812094 79.395638 58.150078 -0.798653 25.420850 0.014008 -14.116577 -0.424433 -34.302175 45.434816 -21.227836 24865 24609 
40.054171 38.770877 -12.831746 -127.415775 -7.513318 24.467548 51.005238 -6.536994 -18.926577 334.845234 -65.845643 -70.777625 -35.856216 -83.277816 -20.629432 -39.531925 24866 24610 
23.282148 38.864072 17.378252 -54.830895 -2.607425 25.665375 13.519974 -61.271500 -75.085301 606.344870 -73.865794 -77.659804 -101.796584 -126.753384 -57.217444 -93.966559 24867 24611 
4.670554 44.831540 65.237162 -36.448662 8.200275 12.587340 -14.478075 -84.600134 -30.396363 276.107099 -36.657834 -34.302571 -45.740684 -50.479556 -36.794670 -41.735421 24868 24612 
-6.245904 26.444775 69.245242 -59.238418 38.799336 14.564683 -13.332980 -70.236733 -49.695214 355.335272 -43.711621 -40.105118 -64.489587 -63.567495 -39.807018 -53.959220 24869 24613 
-30.006885 -10.905214 53.811241 47.972753 45.590415 -5.704722 -29.239686 -71.517903 -34.035518 188.427580 -19.709146 -18.315510 -30.050246 -32.903432 -19.362789 -34.050939 24870 24614 
-23.665253 -7.590509 18.414781 126.534123 -6.733576 -30.422347 -33.937191 -42.600027 -41.613233 147.750372 13.480763 7.790721 -20.929668 -30.309864 -24.481231 -51.687859 24871 24615 
-5.914855 7.182342 -6.450889 125.123043 -87.319766 -37.836975 -11.064992 16.282092 -27.191328 121.261117 27.822338 0.415653 -17.070676 -24.544353 -35.198776 -45.493975 24872 24616 
-22.436941 -18.161471 -25.021841 172.917604 -82.528954 -35.592417 -8.776115 19.600134 -10.460890 42.877587 20.835261 -8.009374 3.571404 -6.576545 -17.760999 -24.476443 24873 24617 
-28.572082 -27.880900 -25.030022 153.360070 -54.293437 -35.794388 2.652177 15.558582 -15.663433 35.067850 5.035498 -7.648852 10.141437 -1.733138 -10.744281 -14.455080 24874 24618 
-18.881030 -5.398595 34.391772 76.092371 -68.198367 -44.401486 12.336692 14.058642 35.251330 -398.448320 51.452321 49.445679 88.888288 69.311770 48.612553 55.486380 24875 24619 
-12.402128 3.390808 50.473057 26.810945 -45.585899 -27.838200 12.251606 -7.100188 15.646701 -336.798747 33.763714 36.768764 99.983865 67.080097 45.269464 38.286141 24876 24620 
-24.315017 -8.864816 56.425799 7.951310 17.649406 -8.142790 15.933193 -56.637085 -33.099971 110.823310 -35.095094 -27.119838 33.436248 -3.572931 -24.593169 -20.778556 24877 24621 
-15.707728 -12.411964 42.031956 1.606109 39.509323 4.089101 18.999595 -78.116393 2.042249 4.581540 -5.208935 -1.813938 14.227273 -6.470197 -10.126842 2.768849 24878 24622 
17.324715 -11.976115 -19.400369 -15.610791 18.975460 24.154528 30.852504 -44.319931 24.954238 3.258462 -0.718151 -10.439724 -26.559476 -11.744979 -4.390899 25.640528 24879 24623 
18.448607 -21.315624 -37.981924 -14.291265 32.604154 44.876266 14.502488 -36.842703 34.880692 60.582789 9.008927 -13.437391 -92.635450 -31.568690 -10.413056 43.582181 24880 24624 
13.901524 -12.616122 -36.779752 -11.546353 31.130441 51.820353 -2.857123 -33.052968 43.360892 -101.577818 20.190925 17.472842 -64.616760 10.223454 12.376397 62.570069 24881 24625 
15.258645 2.474170 -36.339438 -23.013091 33.814279 44.552178 -5.563697 -31.183046 30.785288 -183.657900 0.194385 12.968774 11.682754 45.051967 36.949162 46.025570 24882 24626 
10.178473 2.571058 -34.003826 -22.599143 63.838413 37.163744 -12.881887 -44.266831 20.063618 -105.176625 -6.308721 -13.713435 24.594112 36.395498 23.071723 21.073828 24883 24627 
7.021685 -6.052601 -20.723486 -10.570074 73.711088 28.305772 -16.060776 -55.631608 30.891325 -179.335110 30.992468 11.138316 14.363406 39.886397 30.086240 21.976958 24884 24628 
3.205103 -7.210719 -3.098333 -23.586546 87.954774 22.568290 -19.337770 -60.494800 18.680237 -97.906216 54.226816 26.569372 -22.093560 7.281421 12.335157 0.906772 24885 24629 
1.560972 -9.173271 10.650430 -49.511610 92.252202 15.160941 -13.001617 -47.938046 -37.649244 148.685022 -16.141701 0.524203 -22.085172 -11.948241 -26.828221 -34.556647 24886 24630 
15.731236 -2.586345 15.794234 -97.216444 91.395747 13.963488 -10.192053 -26.889862 -29.523034 -41.810214 -24.240423 26.307464 49.930942 34.714841 -7.625801 -7.753775 24887 24631 
37.772222 19.417999 -2.666004 -156.518880 74.744553 19.382544 -1.382204 9.249771 -33.379764 47.840392 -2.550725 20.081401 30.491751 8.697233 -46.847946 -24.332342 24888 24632 
23.465925 0.723783 -34.346641 -96.196757 55.258086 19.550760 5.129180 26.415664 -23.215213 16.997315 6.878288 32.420642 19.707916 5.184334 -43.088405 -14.884876 24889 24633 
-6.784163 -22.041973 -38.107310 4.407377 27.427985 7.539924 3.945696 23.612464 -14.180288 -8.599388 6.646510 33.170971 13.647004 3.994108 -27.816151 -6.862766 24890 24634 
-24.928917 -7.100759 -3.291868 79.892454 -21.317204 -23.861000 -3.928635 4.535928 -10.709461 9.228265 13.875170 21.587517 7.475011 -4.704162 -24.176002 -12.576336 24891 24635 
-43.482281 5.512761 47.205067 149.295682 -41.728441 -58.687500 -29.190617 -28.924671 4.016242 -70.577902 23.337546 21.847748 22.296686 13.194582 -15.350660 1.235759 24892 24636 
-46.308416 6.822076 76.234759 103.033172 -17.178776 -61.595312 -27.502240 -33.505264 3.924026 -27.371949 15.358929 16.378586 12.828911 5.615484 -20.472482 -6.261505 24893 24637 
-32.175356 7.301567 66.115118 31.129197 6.883943 -46.205168 -14.951034 -18.098267 22.856822 -90.585725 25.068303 30.394120 11.849578 6.856854 -6.800776 0.360825 24894 24638 
-20.339680 3.051835 50.629386 43.905640 -17.110758 -48.568934 -17.281139 5.713651 27.588800 -110.831773 24.101629 23.892416 18.132542 7.884383 1.922895 7.309108 24895 24639 
-11.066402 3.180440 16.085674 24.462400 -38.448783 -28.784796 -1.710343 36.281811 39.971969 -171.683228 6.901907 14.356503 21.295600 13.264881 34.439039 41.453329 24896 24640 
-7.866363 12.504174 2.560180 -28.836024 -43.424584 -0.131041 19.912071 45.281587 53.436112 -189.379028 -21.094596 -9.912927 7.628429 13.070331 65.783173 80.468506 24897 24641 
-20.041580 9.373149 12.061130 -31.598591 -23.519839 11.674429 24.405739 17.645563 97.565882 -467.160432 7.974058 16.120524 54.063758 45.756187 120.763695 124.916328 24898 24642 
-11.537421 7.488807 8.339170 -33.476914 -5.912393 15.093159 22.595777 -2.590183 74.907154 -350.627552 -16.862657 -6.761939 61.763805 38.501684 106.127654 92.951852 24899 24643 
12.279289 11.351339 3.778734 -36.489005 -26.719847 14.102575 21.428519 0.268396 12.879667 -9.037935 -66.692368 -67.535516 22.528875 6.054768 57.742867 44.059642 24900 24644 
17.194849 5.759987 -17.702522 -46.652488 -19.305563 34.254392 12.495846 13.955499 11.210355 -71.893755 -34.742328 -32.038219 5.515265 19.603432 60.898059 41.447190 24901 24645 
19.973241 14.973167 -17.883058 -37.747667 -5.516671 20.684979 -20.926791 26.442799 -32.079081 49.016154 -48.745610 -27.321657 18.703226 15.926124 41.703883 -17.203039 24902 24646 
25.392973 23.480503 7.719197 9.049130 -29.314325 -10.692926 -56.111058 30.476504 -76.108835 215.655638 -86.029430 -50.709117 39.346179 7.962685 12.759631 -62.876752 24903 24647 
22.786917 5.687114 16.514157 32.254524 -38.832825 -6.596447 -63.419194 31.605754 -7.172922 -88.458472 -21.165612 12.894530 31.956789 39.598873 35.500096 -3.153283 24904 24648 
20.138517 5.231691 16.317990 45.928728 -37.949087 -8.599210 -50.048224 8.979593 -28.223936 158.057243 -27.677302 -14.096804 -11.614503 -9.993859 -31.016093 -35.434746 24905 24649 
16.960669 -0.418168 2.810814 41.820402 -37.460145 -0.025783 -6.924782 -16.763006 -76.321063 518.282757 -60.620364 -76.693460 -31.728645 -64.723222 -113.789395 -94.406609 24906 24650 
15.789370 -7.530134 -12.210070 32.229062 -10.293918 6.808791 13.159301 -37.952402 -3.499988 206.618548 23.397681 -20.427007 -38.253077 -39.728889 -93.328298 -34.778970 24907 24651 
24.490935 16.280844 -5.287568 41.089494 -19.822700 -13.970137 1.429337 -44.210205 -6.753256 303.134226 24.443051 -14.569272 -100.263378 -57.225129 -118.282855 -30.483387 24908 24652 
18.533020 7.477710 -17.389475 14.684611 -31.898484 -8.346564 25.958555 -9.019372 1.206479 187.274854 31.949514 -11.494229 -64.543183 -38.060677 -90.381606 -15.951152 24909 24653 
12.749615 -5.204092 -40.894064 -64.727935 -1.846796 20.210155 56.281832 23.431285 -8.651291 137.305759 43.217803 -19.793965 -20.849995 -39.014156 -70.919833 -21.294324 24910 24654 
10.361743 0.211851 -28.366149 -101.524894 6.682491 24.996959 63.510491 24.127508 -19.737978 115.417409 34.004740 4.004521 -37.048829 -23.322394 -54.240161 -19.077308 24911 24655 
-8.670905 -11.933613 -16.744535 -95.840929 4.883846 27.526833 61.184299 39.595004 -17.262599 7.437164 36.555598 46.554958 -44.453125 14.872098 -33.653152 -10.050942 24912 24656 
-13.436643 -6.592718 -7.693074 -95.765011 -16.908795 17.372733 35.779548 87.243959 -33.418051 49.871911 36.311127 38.433067 -34.050448 5.121813 -37.912220 -24.357200 24913 24657 
-5.616347 -3.989464 -7.644241 -92.247063 -27.605242 5.847586 16.335474 114.919296 -9.379672 -28.623044 55.652986 61.526999 -47.345350 -0.905858 -19.329904 -11.596157 24914 24658 
-239.322315 -258.648215 -280.780844 -320.316242 206.548885 256.284750 262.412395 373.821586 -0.537080 -51.512840 50.235821 66.020868 -52.768676 6.629779 -8.051985 -10.015886 24915 24659 
-89.184137 -107.655283 -144.061027 -149.023306 26.058710 91.304888 113.432456 259.127699 17.633202 -200.654239 29.298444 52.019251 -1.426367 38.267577 44.190736 20.671397 24916 24660 
176.386327 157.039358 116.298319 120.883084 -248.398644 -180.317562 -143.331213 1.440331 46.138139 -314.398256 10.270213 47.234101 25.503418 50.326059 86.608675 48.317650 24917 24661 
-44.848179 -83.844715 -120.989878 -95.287038 19.764649 65.166254 103.238556 156.800351 6.764044 -30.925492 -29.204073 7.302946 1.600498 -3.061683 53.202143 -5.678383 24918 24662 
34.993596 8.751390 -13.020557 47.181067 -6.779256 -23.813903 3.863310 -51.175648 -25.724526 109.394795 -49.203692 -20.860738 3.838330 -30.819197 48.392077 -35.017048 24919 24663 
9.444753 11.361391 5.951280 78.942422 7.479795 -25.182340 -6.881125 -81.116175 14.647554 -135.059080 6.067681 4.696070 44.087954 -7.272447 72.527472 0.304796 24920 24664 
31.483185 34.690697 52.611060 78.221633 -34.962096 -58.354888 -22.658224 -81.031367 6.120952 7.204816 -7.106649 -22.670069 38.534094 -27.634307 19.005661 -13.454498 24921 24665 
67.763531 63.592835 103.762067 94.167310 -63.617122 -86.230274 -62.654079 -116.784268 28.989612 -125.173691 -5.369635 -14.514232 58.696052 0.175383 34.856261 22.340250 24922 24666 
27.991275 25.443722 68.318095 52.167140 -10.286901 -36.878944 -42.863538 -83.890849 -3.910538 8.523394 -11.268725 -12.480213 31.424461 -11.899458 6.669267 -7.058189 24923 24667 
88.432398 104.542620 139.541390 111.344217 -79.660625 -104.948609 -122.873575 -136.377815 5.322890 -134.973240 22.368304 13.328110 52.627980 13.558847 24.083118 3.683990 24924 24668 
14.093892 41.439141 86.333306 74.727140 -26.975288 -47.889198 -71.067622 -70.661371 -2.610947 -9.115293 24.454237 -14.490557 6.032499 -11.406801 12.464162 -5.327299 24925 24669 
24.505818 50.154678 83.723899 99.359058 -34.896986 -65.064213 -88.930049 -68.852204 -52.667825 385.825287 -18.479520 -72.296049 -62.331204 -64.481303 -53.112132 -62.457254 24926 24670 
-11.310414 10.114252 -12.457237 25.774224 10.049745 -10.977483 -42.947632 31.754544 6.874119 21.863186 25.889125 -13.445378 -13.355365 -8.586018 -15.228796 -4.010872 24927 24671 
15.639606 27.732196 -19.643481 50.178842 -25.420248 -34.738635 -52.594061 38.845781 -8.969641 187.361497 -19.244085 -31.627889 -31.523470 -28.115805 -58.823180 -9.057427 24928 24672 
-21.074690 -13.101592 -37.258946 52.337704 10.202183 -12.753312 -13.312093 34.960748 7.626717 47.434203 -11.789672 -10.746533 -0.455937 -7.949367 -37.969506 13.850095 24929 24673 
-46.124751 -47.021628 -68.006183 9.595638 85.961134 32.055839 30.341325 3.198626 -5.935607 45.257039 -21.048114 -3.087943 -1.902829 -0.378021 -22.314572 9.410047 24930 24674 
-35.762942 -65.431327 -96.159462 -42.687738 150.508454 68.324762 47.104338 -25.896086 -13.094042 25.265362 -39.232869 -29.583247 25.315706 20.076439 -6.632082 17.884734 24931 24675 
-16.531494 -81.345243 -98.452323 -62.326649 170.031104 79.846981 51.630114 -42.852490 -12.281254 -37.415784 -23.101584 -46.882481 63.442154 34.765048 -2.542382 24.016283 24932 24676 
4.293930 -59.048865 -61.291507 -43.635470 124.766156 57.787712 40.044035 -62.915991 -27.160243 16.211289 -9.341193 -36.163486 44.465149 30.637221 -20.110124 1.461388 24933 24677 
-9.445196 -39.213560 -36.942200 -40.112810 99.574917 53.421319 29.884012 -57.166482 -1.453322 -73.314732 20.818152 12.616191 -3.549900 40.875043 -6.589607 10.598175 24934 24678 
3.420093 2.898997 15.110940 -16.550034 49.880861 16.312469 -2.033410 -69.039916 26.115842 -140.930755 40.148481 37.558579 -30.986200 38.462807 1.729844 27.901400 24935 24679 
1.127508 24.468645 45.585786 -16.171870 -6.916786 -1.048258 -4.669100 -42.375924 74.854582 -431.848121 70.476329 72.274248 22.101052 70.808290 48.803676 72.529943 24936 24680 
32.103153 64.686245 80.866864 -4.649155 -71.495450 -25.135129 -29.635559 -46.740969 63.662479 -360.024277 58.677688 53.597895 22.676478 58.665919 48.824507 53.919313 24937 24681 
27.958357 59.165205 76.733127 -21.391056 -83.754723 -2.849681 -23.263646 -32.597583 27.667223 -173.092887 37.680795 49.614425 -4.914004 20.816072 23.748155 18.480222 24938 24682 
15.683552 72.995619 106.929722 7.916007 -104.408062 -12.321819 -36.321984 -50.473035 -5.698094 -33.958787 -40.421308 41.827099 12.336870 15.205132 0.732704 9.976384 24939 24683 
3.310398 91.072514 131.486720 35.590679 -117.794700 -36.956542 -41.769148 -64.939921 -4.267279 -15.273417 -44.399442 11.278814 48.016401 11.683121 -12.429495 5.391298 24940 24684 
2.478310 87.943503 134.440182 58.610730 -138.582151 -56.562749 -23.278936 -65.048889 -6.833916 62.908430 -15.684704 -12.874271 37.554830 -22.887742 -23.851340 -18.331287 24941 24685 
-10.855064 55.053713 107.536074 65.341639 -116.691316 -54.058495 10.978519 -57.305070 6.844913 28.730984 -28.296309 -18.649756 30.202831 -13.867782 0.169297 -5.134178 24942 24686 
-30.422430 23.748083 58.613939 82.131913 -48.899886 -42.300601 3.389635 -46.260653 25.371962 -4.721666 -13.990576 -7.428778 -4.348248 -14.989180 14.840272 5.266214 24943 24687 
-50.246706 0.298535 12.964655 134.043979 32.284551 -29.134883 -48.940902 -51.269228 32.141031 -53.431411 -0.000879 13.222239 -15.846041 -10.672992 23.711493 10.876560 24944 24688 
-72.867359 -59.895853 -70.937937 143.577301 132.379665 20.102237 -54.370421 -37.987632 -15.467611 208.405286 -32.979434 -34.181351 -38.822583 -45.400555 -7.969103 -33.584649 24945 24689 
-68.147443 -107.902557 -139.300585 106.064770 201.905688 48.679674 -31.150845 -10.148701 -69.530762 543.790255 -77.887218 -95.793589 -87.714732 -84.751488 -48.260705 -79.851759 24946 24690 
-39.877538 -124.956685 -166.368854 42.430908 212.624667 55.238998 -0.961315 21.869820 -19.291392 219.641649 -23.206780 -49.018224 -64.270500 -52.625264 27.226928 -38.456418 24947 24691 
-8.678581 -117.492788 -144.323377 6.566977 156.210273 45.505200 20.938650 41.273647 -54.678574 318.848625 -6.162539 -46.625333 -109.152873 -176.125361 241.645371 -167.749315 24948 24692 
5.141871 -68.472859 -79.911944 -1.180782 78.984045 23.157489 2.115240 40.166941 -49.398100 212.154223 1.531926 -35.218648 -97.698018 -201.646316 378.385388 -208.110455 24949 24693 
11.269641 -20.722176 -36.078859 -43.784207 30.597114 22.835641 -3.625208 39.508054 -16.273881 131.103682 -36.746176 -45.944295 -46.351687 -87.652279 187.919075 -86.054439 24950 24694 
1.280835 -24.900887 -6.514274 -94.626057 22.434393 35.165651 23.518803 43.641536 -10.658407 154.064518 -63.470208 -67.800299 -19.284982 -36.939813 74.385703 -30.296512 24951 24695 
221.852512 195.565928 233.485391 132.267078 -203.336784 -186.971651 -194.607866 -198.254608 13.765858 21.852064 -39.153116 -42.838390 16.989739 37.818064 -51.610186 43.175967 24952 24696 
78.488011 69.313761 96.009874 -2.348986 -93.306502 -56.886105 -33.711446 -57.558607 -1.048769 38.421116 -33.026983 -2.059021 38.134412 102.859278 -237.760431 94.480398 24953 24697 
-184.129604 -183.600034 -179.222151 -252.109042 129.362236 193.895494 252.975319 222.827781 12.483973 -79.065309 -25.556934 25.501333 85.207650 161.225853 -329.326361 149.529795 24954 24698 
10.858146 13.842057 -13.241886 -44.052091 -61.231250 4.356889 60.371081 29.097055 18.097354 -46.146120 -32.607019 5.439392 92.446772 199.219914 -430.418906 193.968613 24955 24699 
-90.517757 -72.207259 -79.174484 -111.103462 37.808483 81.396444 135.297015 98.501020 79.960702 -495.760144 80.913406 100.619989 124.830114 260.397757 -407.610068 256.648243 24956 24700 
198.026771 222.486408 231.492666 -264.898387 -259.827119 -229.001301 -175.012284 276.733246 34.967488 -297.050426 85.761875 123.895544 67.082976 216.131096 -434.617050 203.828496 24957 24701 
83.244781 107.078190 112.805212 -106.044457 -145.451702 -115.369819 -68.590371 132.328166 -30.012101 -23.924698 69.537284 88.583191 20.222770 132.317024 -356.017255 99.293786 24958 24702 
-220.872849 -191.183219 -169.713258 135.426181 159.280258 186.692873 220.074512 -119.704498 53.175919 -559.697270 189.385183 131.304898 85.854256 129.883952 -138.090512 108.183574 24959 24703 
20.393989 47.207314 62.107570 -16.060529 -57.823407 -44.819642 -23.192407 12.187113 10.324848 -186.142628 129.193389 71.262173 23.127682 19.273520 -71.825600 4.786616 24960 24704 
-106.303720 -91.189155 -89.485100 35.903218 94.235078 92.041771 104.027847 -39.229937 -48.456506 62.510422 2.778427 53.506032 5.120874 -30.988983 25.241434 -69.711701 24961 24705 
7.548783 11.028630 4.114709 37.948497 -12.671302 10.330590 -24.875015 -33.424892 -18.301638 -243.543861 2.155251 85.867461 35.497953 -29.358341 219.976449 -52.293274 24962 24706 
-7.827141 -14.643915 -40.060438 -30.736666 17.585390 52.297651 -3.180412 26.565530 -46.313320 21.516057 36.225198 53.416262 -74.194286 -167.629361 319.504826 -142.525375 24963 24707 
5.090502 -2.626086 -42.092778 19.726811 8.749970 33.533199 18.383942 -40.765559 -87.963119 334.223111 28.628596 13.943610 -140.992001 -272.908263 370.356067 -245.288001 24964 24708 
31.157050 28.316429 -11.520401 -41.457261 -46.667964 3.636759 -1.661610 38.196999 -58.988344 236.560681 -0.326285 -48.317999 -101.613517 -262.907298 484.865403 -249.272641 24965 24709 
-14.512235 -7.837269 -27.323659 41.797314 -32.831004 33.926294 26.482767 -19.702209 -42.349526 249.427123 -34.605981 -87.804927 -104.291021 -261.109589 531.719250 -250.985330 24966 24710 
20.969047 44.288459 52.667442 11.731810 -89.157138 -30.433842 -30.936584 20.870806 -25.200299 211.130253 -58.948285 -107.399210 -81.999346 -219.370860 493.924570 -212.136823 24967 24711 
-34.342848 -2.876078 21.369997 74.603761 -37.946189 2.890630 7.764249 -31.463521 15.723133 110.129203 -86.092359 -117.525719 -58.810068 -112.067872 327.990113 -79.346430 24968 24712 
15.857178 39.947539 59.856209 28.073655 -72.072299 -34.609310 -33.809269 -3.243702 40.603250 80.144651 -104.786464 -94.924935 -66.803183 -23.231064 134.029405 34.968339 24969 24713 
3.000004 13.108334 36.300147 -3.230725 -40.721387 -5.800918 -7.393164 4.737708 51.655713 6.425616 -102.567279 -93.602735 -33.248283 16.542466 80.609408 74.185093 24970 24714 
30.347265 36.651165 64.729358 -27.688123 -58.829686 -38.938189 -31.862633 25.590842 40.625031 30.314532 -87.744486 -92.914882 9.900852 34.704285 -5.875887 70.990554 24971 24715 
-0.195476 15.400342 27.264502 -27.747527 -6.288853 -16.439089 -23.137528 31.143630 38.513718 -5.851408 -49.113465 -58.170607 38.957884 62.062593 -113.195214 86.796499 24972 24716 
-118.790535 -110.922643 -112.113882 -120.758549 -84.588259 337.470482 321.103239 -111.399852 30.767036 -3.113752 -36.642004 -23.897541 43.813002 105.098851 -235.218403 119.192812 24973 24717 
-44.965399 -56.549806 -72.120936 -69.983133 10.685917 134.396257 122.940432 -24.403332 29.087979 -37.610081 -29.633331 -14.733409 75.039757 150.302405 -324.380321 151.927001 24974 24718 
441.188320 -49.296879 -85.931974 -53.003212 62.045479 -372.477584 -374.666852 432.142702 27.271640 -58.289804 -23.841772 -4.356570 84.871973 173.377677 -373.942404 174.909260 24975 24719 
131.750602 -71.764607 -106.412097 -105.331244 61.037981 -13.291541 -1.963119 105.974025 48.440224 -228.776864 27.314014 49.585063 74.745241 208.638651 -384.391277 204.444948 24976 24720 
-292.957503 50.560966 41.643734 58.704943 182.406692 -81.800027 -58.562286 100.003481 32.071730 -209.610808 61.129431 68.473237 48.454323 189.175838 -362.685677 172.991928 24977 24721 
51.863740 19.710211 20.379914 8.798620 -38.169006 -118.234103 -77.780736 133.431359 18.819042 -269.992699 83.329750 95.167272 65.876571 161.049033 -279.164603 124.915634 24978 24722 
-1.553541 146.355597 135.422321 140.870568 -62.809013 13.378306 72.061569 -443.725807 3.992491 -239.433768 82.807414 99.704308 60.118703 98.294065 -164.176596 58.693382 24979 24723 
24.948322 55.048384 38.762455 12.808509 -70.948146 -58.186042 -1.774636 -0.658845 -44.778270 172.009915 21.730742 32.928540 -15.876860 -5.401853 -133.115148 -27.497066 24980 24724 
-12.357923 0.599729 -11.967983 -5.359368 46.464066 75.910851 106.555021 -199.844393 0.375722 -81.283565 83.710188 50.169097 10.352165 -16.310124 -18.396058 -28.617427 24981 24725 
-43.788304 34.983076 20.711477 52.668193 83.880944 -5.207195 -13.747990 -129.500200 10.251925 -148.050864 100.003099 65.224590 -8.595329 -48.311633 92.895896 -63.417684 24982 24726 
1.821054 -13.100244 -26.700352 7.215568 30.537257 36.900888 27.986424 -64.660595 19.938704 -144.501833 59.343532 60.577744 -54.558120 -86.167108 224.514304 -79.147223 24983 24727 
-42.240281 28.049198 -6.376807 45.406445 97.966497 5.362760 50.114545 -178.282357 28.258923 -233.583035 63.061777 44.029012 -42.868976 -107.120880 336.757400 -88.534220 24984 24728 
23.863926 -22.234366 -89.153333 -1.046530 36.110069 -2.025756 55.328622 -0.842633 -67.365280 263.928899 -9.853124 -31.423423 -81.319105 -189.154540 322.405975 -207.219401 24985 24729 
-9.157988 20.574729 -31.728327 74.123860 46.450806 -12.659766 13.771036 -101.374350 -101.779039 446.947532 -43.817613 -50.825256 -101.314912 -212.557570 322.384400 -259.037541 24986 24730 
6.547869 -55.212772 -46.225925 7.421142 4.185367 5.626247 5.494349 72.163723 -59.014700 223.634400 -29.156053 -39.696413 -60.471372 -152.332313 318.607922 -201.571471 24987 24731 
-35.705684 -50.359252 -2.473389 3.684099 15.664290 45.027597 15.583524 8.578814 -42.804877 238.431426 -75.186728 -71.869015 -9.574736 -80.365311 174.044182 -132.674940 24988 24732 
-16.756662 -34.409960 -16.276754 -43.659983 -11.874789 30.242946 -35.919781 128.654982 -26.543360 159.850692 -80.695350 -62.363118 47.313585 -3.976615 29.450578 -63.036411 24989 24733 
9.563688 -3.379327 -14.457403 -60.208770 -15.383700 40.396146 -95.700540 139.169907 -22.706033 120.865408 -61.610475 -46.753893 46.963615 5.136869 3.685992 -45.581482 24990 24734 
-28.460839 -27.467862 -46.871269 -79.046469 -106.685865 -64.263671 187.705876 165.090099 -5.004136 123.605010 -56.102080 -59.779396 23.626042 12.460771 -37.245182 -1.561029 24991 24735 
-229.283976 -219.057498 -227.624154 235.635405 129.191083 185.788860 163.547699 -38.197418 26.193058 36.482099 -47.410389 -54.764916 15.790295 40.956874 -83.112078 65.865058 24992 24736 
62.499876 87.479920 -361.597947 273.417408 194.004434 226.013680 -214.281401 -267.535970 33.682214 28.317956 -46.549683 -40.826280 14.220814 60.890398 -154.863954 105.128535 24993 24737 
200.968014 183.962942 17.982414 -188.141158 -153.920438 -120.288736 -72.688777 132.125739 33.405343 -51.493300 -27.408671 -24.267554 51.738327 85.967351 -205.999359 138.057862 24994 24738 
-34.647004 -29.783162 350.417019 -65.693977 79.463605 -123.580023 -71.284971 -104.891488 18.286048 -51.633943 -24.599193 -17.910965 70.922899 97.698884 -239.842041 147.078311 24995 24739 
78.387669 70.942054 83.976235 -179.941969 -7.156183 190.429920 -74.570811 -162.066915 23.031789 -157.058506 8.036937 33.098373 81.539927 119.249156 -258.960877 151.063201 24996 24740 
-144.045077 -110.864660 68.410272 263.884533 -144.623638 29.426728 -213.763104 251.574947 23.646577 -283.924463 50.336302 86.937091 100.735216 128.718410 -235.255458 128.806326 24997 24741 
39.143324 71.755715 143.592028 192.423717 1.841213 -300.961751 -96.629659 -51.164586 17.413134 -227.260203 55.691139 79.192230 66.450269 97.773786 -186.166048 96.905694 24998 24742 
70.660739 126.118468 184.729509 -410.225184 -28.133708 -29.324404 -38.736619 124.911199 50.796993 -360.947661 98.637022 92.176590 19.484930 80.971674 -77.394794 96.275246 24999 24743 
-1.361866 54.440688 174.378405 -20.961202 8.537703 -141.780926 -123.619442 50.366639 30.481277 -246.747783 83.469428 71.924523 -20.038546 54.272587 -29.758579 56.397092 25000 24744 
42.844834 83.515786 134.267935 -144.807129 -5.639876 -48.996818 -48.954427 -12.230305 -2.103476 -47.526125 68.901490 34.270071 -35.264436 -8.954366 -2.043678 -7.279479 25001 24745 
-62.947348 -51.097925 115.711599 82.322919 -20.749305 -6.284664 -124.885807 67.930532 31.293027 -240.685186 122.556163 57.775024 -5.343310 -26.968583 82.907771 -21.534905 25002 24746 
9.114153 -13.042667 29.413237 135.443304 -40.259208 -70.933457 -25.037233 -24.698130 -26.293893 200.286398 29.967373 -12.306288 -67.028876 -108.205816 103.937899 -120.356798 25003 24747 
-64.480884 -125.856496 -43.468142 92.661995 20.601270 51.245649 -61.035928 130.332536 -18.148940 145.846703 -4.988270 -17.556093 -46.515141 -109.744278 179.003042 -127.897023 25004 24748 
0.932072 -65.893871 -92.780891 112.945873 61.155483 -28.688039 -36.125964 48.455338 -31.056200 169.065303 -24.664695 -12.046268 -51.422040 -124.364825 212.454528 -137.965803 25005 24749 
-20.108334 -46.649846 -50.016298 -16.551980 36.230078 28.628261 -49.456117 117.924237 -79.015508 485.627281 -74.680649 -46.782361 -118.346370 -178.289522 191.511573 -180.024443 25006 24750 
5.424340 -11.090963 -41.666647 83.683478 35.428485 -65.670618 -4.213299 -1.894776 -27.401482 170.412692 -43.151003 -17.651314 -75.668807 -112.834305 215.856326 -109.562107 25007 24751 
11.353343 -13.239548 -38.650100 -100.992915 57.058097 21.377967 68.014884 -4.921728 -35.641800 285.496027 -77.952676 -56.732726 -60.550061 -72.367253 83.260054 -65.511564 25008 24752 
23.398847 -14.313661 -33.747764 -71.002664 24.096325 8.430095 97.523460 -34.384639 -7.152464 128.397140 -52.198976 -55.055062 -9.798859 -1.227689 -7.171287 4.207197 25009 24753 
71.081907 40.134376 -3.089661 -145.290389 -158.165921 11.278606 168.182567 15.868515 -15.256361 112.374457 -31.716179 -37.559718 -0.001531 6.863206 -10.608156 -24.095718 25010 24754 
-65.062839 -67.475738 -92.400260 262.090572 90.416604 -104.579987 54.515673 -77.504026 -18.030034 78.802912 -22.982636 1.710557 3.361680 16.314868 -33.858400 -25.318947 25011 24755 
11.376691 37.350772 -27.741242 30.606756 -100.085231 -47.337247 130.792227 -34.962726 8.855079 -2.155424 -22.736368 4.893422 -1.260137 28.309526 -46.293089 30.386992 25012 24756 
151.072620 182.009769 126.437723 -373.148413 -459.605269 -17.669855 226.106826 164.796599 26.265019 5.341054 -72.612502 -36.709585 3.790982 45.173928 -62.062589 90.813692 25013 24757 
-30.876794 0.390264 -49.238348 324.421486 -197.438508 -21.297847 25.909580 -51.869831 43.089729 -99.284483 -99.150878 -49.700144 44.810182 83.354006 -68.624149 145.505737 25014 24758 
-158.593619 2.734360 5.798307 31.298476 -169.016733 249.957563 53.623063 -15.801418 27.802511 -60.848543 -101.878822 -47.268968 44.470545 84.076755 -86.806364 140.452886 25015 24759 
-313.485929 41.255396 54.771758 -155.833791 82.828509 203.195385 106.302965 -19.034292 53.847621 -289.102883 -18.128998 11.279311 48.800401 109.916863 -70.159416 153.547100 25016 24760 
-125.962098 -72.716207 -53.056326 -2.012387 -56.665609 398.826983 14.597998 -103.012355 45.202755 -190.429393 35.058519 10.217559 4.533809 70.043959 -88.333366 113.706159 25017 24761 
195.946932 -29.316374 -42.062149 -196.855608 50.847951 -1.361033 84.541543 -61.741261 33.491170 -34.163316 13.584071 -27.140135 -18.184123 34.841665 -85.366752 82.937420 25018 24762 
43.943223 -84.052854 -99.230689 20.245514 299.909938 -212.485413 73.581317 -41.911035 82.938261 -390.851940 84.614068 1.196843 34.709357 62.841120 11.217050 113.335242 25019 24763 
87.258673 -101.857956 -112.964835 -44.115313 173.912871 39.734282 14.417736 -56.385457 49.993271 -339.000026 114.329458 16.651043 29.448569 36.990229 21.937748 69.649708 25020 24764 
71.152025 -55.543160 -71.332388 14.259266 239.601306 -130.872155 -23.846387 -43.418508 23.131903 -276.355764 108.672034 63.352789 10.855473 14.415289 30.357712 25.570564 25021 24765 
82.779520 -19.867204 -41.520070 -37.201464 105.399813 -31.558963 -15.813246 -42.218386 -6.519046 -75.331745 96.303413 65.533076 -26.025400 -35.725699 17.213732 -35.448331 25022 24766 
106.238177 25.582839 -11.011846 -157.228446 113.978232 -58.348748 16.268983 -35.479191 -43.023748 117.587554 55.306295 37.959195 -33.633162 -64.406002 25.366459 -95.156592 25023 24767 
101.637659 76.888108 52.798793 -180.464727 -35.217013 -22.210297 2.344109 4.223368 -31.750231 68.629861 29.205805 45.630188 -34.053432 -55.152654 71.451935 -93.961472 25024 24768 
130.481030 106.348024 97.893317 -180.027797 -105.398757 -53.896582 -0.722010 5.322775 -80.622354 465.764524 -44.041823 -6.438339 -96.606543 -115.594132 29.840542 -152.301875 25025 24769 
74.991722 96.249354 91.620461 -35.727168 -130.453917 -86.726023 -4.480956 -5.473473 -34.268137 154.622369 -18.121199 12.712979 -12.633682 -45.218796 28.533045 -85.626579 25026 24770 
47.586927 71.839185 66.647313 14.028638 -84.185801 -37.867488 -49.195310 -28.853465 -33.365926 186.542751 -44.401598 -23.010147 28.643872 17.180125 -111.395103 -20.193974 25027 24771 
-44.471483 33.197358 26.104635 216.691251 7.990557 -82.159331 -109.237208 -48.115779 -30.578354 160.985708 -58.706103 -31.604284 56.838803 75.282476 -205.296617 33.078372 25028 24772 
-94.367722 -43.769323 -69.137091 276.996887 109.500261 -3.065242 -121.858623 -54.299147 -17.543471 65.683914 -17.501725 1.912775 25.677889 79.499899 -174.381617 36.652337 25029 24773 
-158.664919 -162.885637 -181.141995 230.193210 313.964016 67.390013 -85.102399 -23.752289 -34.977309 155.729656 4.311315 6.150895 -26.081560 28.108512 -115.912939 -17.328570 25030 24774 
-86.274244 -125.238177 -107.538337 146.168815 -92.899616 178.390720 4.133372 83.257467 -20.011393 -28.177674 18.137188 9.314048 31.122544 35.769692 -35.591449 -10.562956 25031 24775 
-24.941696 -47.563176 15.920977 89.326558 -362.127876 133.340493 62.755001 133.289719 -42.695626 80.249506 -0.730763 -9.951610 35.483449 -5.729187 3.272703 -59.898473 25032 24776 
-85.143991 -103.663313 -62.324267 -57.016871 221.983720 52.567410 -20.642302 54.239615 -26.797555 4.387336 26.454601 15.291894 45.565325 -40.685147 74.824630 -99.041083 25033 24777 
-22.777345 -37.548357 -65.095018 -252.472346 274.025114 20.509451 -24.069973 107.428474 -33.445367 119.379024 32.898354 22.907691 14.740839 -98.163758 97.512896 -155.829680 25034 24778 
-3.037952 -30.019231 -82.941557 86.410541 -75.628939 11.296386 -39.124858 133.045610 -20.447033 168.776544 42.750710 33.729199 -25.456886 -138.501764 126.324520 -187.175289 25035 24779 
125.996263 43.994713 -11.206866 137.080732 95.719091 -219.711986 76.726185 -248.598131 -49.081039 453.896059 4.671271 -1.386042 -70.941987 -201.935790 100.838934 -236.061407 25036 24780 
242.010922 237.198323 206.256240 -39.227571 -261.928018 -364.504424 299.481440 -319.286913 -23.780429 200.365422 26.524310 55.604864 -6.457348 -168.462659 127.296437 -211.090598 25037 24781 
-54.595211 1.157880 -13.018589 72.011252 -213.559084 49.191188 31.393967 127.418597 -3.126003 108.905304 -9.526702 57.285394 -9.375938 -125.271471 133.990358 -152.880942 25038 24782 
-89.741339 -38.125515 -2.128508 -129.084360 158.675423 109.202549 -84.049943 75.251694 14.532731 86.805348 -73.085262 -24.267522 -30.858026 -51.384131 128.520262 -50.263400 25039 24783 
35.780115 113.670932 164.327352 -9.257848 -181.515385 -35.205471 9.537793 -97.337488 49.224690 -94.552148 -89.219204 -100.597193 22.402315 32.088655 133.412599 47.240286 25040 24784 
22.334542 87.401473 100.990456 -99.796674 -77.875852 35.475568 -12.218152 -56.311361 3.924419 257.074535 -118.207662 -174.292185 -33.600106 -10.924163 36.333591 39.691572 25041 24785 
62.582188 131.343509 153.398133 -114.814147 -130.115904 -28.020182 46.219821 -120.593418 81.315903 -369.365725 -2.591925 -61.402839 27.169059 82.907219 65.623195 176.345113 25042 24786 
3.297370 82.758054 104.986684 -3.754237 -105.150366 -4.304598 -8.638311 -69.194594 61.040601 -293.795936 -49.577128 -75.601709 7.792935 109.899167 10.635392 229.606678 25043 24787 
-5.432393 62.993309 84.478316 -78.483291 -17.879531 0.062095 -16.316636 -29.421870 70.225122 -380.657267 -70.669042 -71.594610 -6.461521 161.758562 -1.450134 298.848889 25044 24788 
-30.675826 36.489928 77.065213 17.364170 -86.910153 2.609329 -17.115457 1.172796 68.727361 -492.192193 -56.463323 -39.287572 4.369162 208.861283 -12.293490 318.278772 25045 24789 
-47.588379 7.160807 81.434881 -47.455708 13.791714 10.246717 -28.990918 11.400886 14.347884 -278.207602 -58.790062 -22.833829 -16.926931 186.387653 -68.666313 244.689201 25046 24790 
-63.889166 5.703528 61.937922 52.263931 -33.446148 -3.692179 -55.588887 36.710999 45.028391 -642.370491 53.270936 78.084036 38.502231 208.350897 -16.912547 236.046548 25047 24791 
-81.382345 -16.074524 1.125093 36.520649 47.228124 11.966965 -90.857628 91.473666 -29.050940 -233.604532 33.640779 50.424918 14.258493 118.927430 -67.060824 112.464675 25048 24792 
-84.671811 -52.365584 -58.821895 30.948886 68.344867 35.663060 -63.300193 124.202671 -15.742059 -287.426958 71.404163 88.427904 33.906478 89.536072 -46.724091 66.618492 25049 24793 
-125.023320 -119.123009 -135.926639 42.203409 185.582541 77.393317 -57.212621 132.106322 -24.643029 -142.814201 73.142754 95.802806 3.263648 38.007826 -54.457906 11.698102 25050 24794 
162.327654 140.612977 120.026130 -97.594999 49.475690 -90.122313 -210.763020 -73.962119 -25.933338 -62.438303 73.127620 95.190964 1.448689 10.499717 -73.402133 -18.493216 25051 24795 
296.793498 238.011311 179.042777 -184.198278 -3.311820 -111.623748 -286.336542 -128.377197 -10.501193 -65.095626 84.400439 90.184151 27.604253 -11.457971 -73.751319 -41.382734 25052 24796 
-6.853062 -78.777811 -143.064038 282.414735 0.372449 -85.592813 177.079670 -145.579130 -19.335916 64.478239 62.682216 56.694753 -1.245736 -74.428063 14.098731 -102.944223 25053 24797 
-99.590662 -166.987525 -188.530631 234.942489 -192.028248 119.205714 188.516689 104.472174 -6.857424 0.089924 76.240925 49.110951 -35.030364 -115.219685 165.321386 -133.655713 25054 24798 
-142.624584 -223.421310 -199.400650 -146.261336 261.096566 309.667641 -126.391669 267.335341 -4.765179 12.402053 84.206747 29.756479 -28.300477 -145.941744 210.935246 -158.293125 25055 24799 
-31.039237 -142.092183 -106.161141 147.783153 436.183554 -276.183757 9.021846 -37.512235 -2.548628 76.253274 59.133067 -6.327804 11.306063 -156.155412 188.624973 -170.285533 25056 24800 
-41.832864 -69.142819 -12.992910 68.261264 120.936396 0.510882 -76.087336 10.347387 -42.425865 572.988357 -49.112798 -110.841518 -24.861214 -206.719212 63.503338 -202.531087 25057 24801 
-131.534297 -72.605192 24.510954 40.897580 108.846386 293.442508 -101.543364 -162.014575 26.373010 300.201233 -48.404205 -101.863813 5.592055 -145.536160 60.308668 -96.670788 25058 24802 
-16.017351 17.847639 136.160505 64.704795 21.572131 -45.584950 -25.713747 -152.969021 41.519387 159.761451 -70.844344 -66.785005 17.683430 -81.179128 28.397309 -28.553100 25059 24803 
-54.942717 -3.229683 122.987957 -44.379431 -8.971436 115.561541 -12.880915 -114.145315 2.659193 199.271926 -93.578560 -29.852188 19.068933 -39.398918 -32.118854 -26.051533 25060 24804 
44.570345 83.307713 168.350220 -65.239820 -82.104123 -44.335144 15.269880 -119.819071 -2.548115 119.319576 -69.380463 -6.877516 19.534652 6.862039 -56.581639 -10.328535 25061 24805 
58.600030 74.240030 40.500924 -97.795047 -137.300034 11.248776 17.839191 32.666130 -2.886169 258.938657 -50.853634 -25.288698 -39.106581 -0.495920 -130.923147 -9.384508 25062 24806 
6.301351 4.192931 -129.640255 -23.379270 -68.572880 50.751451 106.045653 54.301019 4.252990 186.877291 2.591188 -29.491983 -50.263556 37.647970 -173.774169 22.160269 25063 24807 
-57.832218 -64.061824 -184.941804 3.595078 -55.050745 52.022640 134.020058 172.248816 -36.805163 190.849846 -2.671501 -57.711695 8.201201 93.967577 -218.418977 22.588711 25064 24808 
-107.842497 -118.231296 -198.197742 39.812768 8.616941 92.677422 160.167743 122.996662 34.238406 -365.647452 74.746756 21.337448 110.968541 177.993281 -171.220227 117.583247 25065 24809 
-67.048267 -104.330362 -188.875458 10.177317 1.522214 27.084134 120.848784 200.621637 32.986700 -353.061670 62.250506 37.800416 86.323388 166.336328 -180.327628 147.691960 25066 24810 
-52.788796 -85.793839 -167.265216 -8.529659 -21.791535 51.011690 55.634841 229.522514 -38.829602 -70.054149 -48.558602 25.267917 68.560073 137.567798 -175.743209 101.789774 25067 24811 
-27.966995 -66.447142 -109.615485 4.105964 -72.274644 -24.786107 25.594355 271.390056 -13.027737 -257.912267 -16.648369 71.524918 82.105125 141.867085 -118.333139 110.424386 25068 24812 
-37.871542 -80.188435 -98.589395 -8.715810 -59.372177 5.487526 -8.544623 287.794456 -19.429745 -51.592398 17.728422 47.037477 26.653120 58.638208 -127.387831 48.352747 25069 24813 
-20.376045 -57.620954 -101.729000 -29.406380 -40.613454 -28.601596 -12.187446 290.534875 -1.790506 -81.585687 35.377035 59.349509 26.853772 24.179558 -82.949404 20.565722 25070 24814 
23.694564 0.183193 -81.312215 -3.503279 47.388791 59.295933 110.571130 -156.318117 -3.087916 -10.090137 49.687626 67.845437 -12.895796 -12.614187 -64.974072 -13.870954 25071 24815 
11.871291 -21.816884 -104.804498 -40.327386 52.828369 14.484722 119.943589 -32.179203 -5.705627 30.509775 58.762320 89.433932 -48.979633 -38.124054 -36.608395 -49.288318 25072 24816 
-22.494921 -49.108902 -101.345726 -97.283080 -18.983159 -49.933772 -8.945624 348.095184 2.943851 53.770836 56.105069 86.780008 -51.839705 -62.405676 -15.171508 -70.182876 25073 24817 
62.656408 55.558759 47.529171 -73.532556 37.390399 -52.047956 -1.810247 -75.743978 6.815263 122.573085 54.515978 58.614376 -44.777187 -91.648876 -13.667040 -92.425600 25074 24818 
92.784486 57.612842 70.632320 -115.641140 -30.598929 -85.197294 -53.509900 63.917616 21.577002 -23.805159 83.997456 63.553375 1.914070 -71.002341 21.956944 -98.191347 25075 24819 
118.657337 31.637178 47.607409 1.060307 -86.060568 60.734383 -75.349163 -98.286885 -9.281518 223.634663 34.623271 -15.417226 -35.931818 -99.436129 38.543551 -136.734795 25076 24820 
72.250763 45.262890 69.967011 6.881404 -48.195194 -19.908251 -25.352789 -100.905833 -40.908686 616.988343 -34.492755 -96.617473 -140.323011 -167.212550 26.308484 -163.742352 25077 24821 
96.055229 133.456037 163.249254 -0.978635 33.647051 -28.467777 57.835730 -454.796889 -24.761844 529.438752 -69.873069 -90.178835 -117.040688 -142.089081 43.702500 -129.197736 25078 24822 
113.198529 113.164362 138.068561 -17.309585 -34.520882 -28.036352 23.649447 -308.214081 -5.079866 287.686482 -88.118579 -65.330314 -52.039481 -74.109941 75.042298 -78.050600 25079 24823 
26.960564 39.321547 63.750859 -54.835215 -137.446874 -144.173907 -29.130909 235.553934 -19.478740 251.766326 -64.870133 -58.641497 -48.253597 -63.166299 61.240902 -58.596962 25080 24824 
89.835289 99.698187 132.269969 43.303041 -91.147067 -93.758750 51.461545 -231.662214 40.278016 -209.014819 -30.809312 -54.465314 32.043254 26.771686 132.407483 62.789006 25081 24825 
42.448275 65.644915 117.102922 -2.717069 -94.017897 -126.315166 17.659674 -19.805654 37.346579 -164.591017 -48.056067 -99.779520 26.172917 28.111659 129.209301 91.586149 25082 24826 
35.235034 76.420874 160.599026 47.298899 -34.453196 -98.420890 -8.044536 -178.635210 0.829539 27.874748 -86.758516 -111.625538 -0.175884 6.583345 89.279021 73.993287 25083 24827 
8.593077 68.604749 160.455790 72.329519 -15.982493 -89.280321 -42.136267 -162.584054 47.213115 -429.467028 -74.156635 -25.364867 97.224769 103.115571 128.896742 152.538333 25084 24828 
-8.004090 59.465671 137.955922 58.970336 -11.492036 -65.790896 -42.079738 -129.025169 57.845424 -476.177056 -53.487724 13.321793 105.930270 113.920626 81.991073 156.655594 25085 24829 
3.600991 44.124038 106.170389 31.479008 12.424682 -6.466626 -29.472922 -161.859560 68.623401 -403.355591 -11.065074 10.269617 53.555339 86.186264 36.788164 158.997880 25086 24830 
-31.110775 22.166206 59.238957 15.830868 30.725492 11.011103 -85.061861 -22.799989 23.829956 -146.064583 -6.516926 -5.807158 1.143535 32.252261 -17.442837 118.605753 25087 24831 
-29.361140 12.171362 30.047516 24.372281 89.786417 51.072540 -98.126552 -79.962424 25.066466 -174.549370 11.618702 0.096237 15.841146 38.213944 -38.851085 122.563960 25088 24832 
-53.958404 -18.442753 -2.524809 -29.067291 109.692578 34.910398 -80.640952 40.031234 1.501110 -126.911082 3.547977 -0.247021 44.675905 51.683974 -66.093875 91.843012 25089 24833 
-52.715904 3.647731 12.992309 3.016916 143.244065 32.310542 -93.798911 -48.696749 -38.746458 -46.537739 20.310869 22.655206 39.923607 54.096639 -78.464192 26.762068 25090 24834 
-68.006194 -9.676447 -20.391024 31.199383 158.648002 11.149585 -110.997325 8.074020 -19.538474 -84.655838 63.771191 52.752301 -6.895055 50.600299 -52.003091 -4.031333 25091 24835 
-42.317166 -12.262202 -47.246912 52.071258 124.731123 9.538553 -84.408289 -0.106365 -27.904938 79.760769 36.960136 27.265562 -60.036972 17.100610 -15.108105 -58.037062 25092 24836 
-20.269544 -16.148907 -55.864232 50.534666 15.462378 32.302438 -65.228590 59.211790 -8.376591 62.753980 51.546944 29.455730 -93.456864 0.784364 31.322637 -74.030200 25093 24837 
24.211438 16.212722 -18.052116 4.491532 -125.078030 4.953974 -5.782703 99.043183 -9.106047 138.023015 61.724123 39.953761 -117.635666 -41.496301 28.422142 -99.885027 25094 24838 
74.983568 30.213490 -15.274583 -15.467691 -206.660818 -13.590921 30.018583 115.778372 22.031157 -106.913402 85.532277 68.026424 -49.299649 -34.839922 72.796721 -57.333606 25095 24839 
76.279066 -32.214833 -79.327946 60.760312 -180.314183 95.436136 -1.891529 61.272978 14.321612 -95.294974 45.499104 40.000419 -14.088594 -44.016229 86.104634 -32.525973 25096 24840 
14.005495 -51.349788 -88.478458 31.897389 -63.881360 81.552289 31.109872 45.144561 -29.892647 77.715821 -14.271594 -13.389245 -7.318114 -45.735062 91.949722 -59.058880 25097 24841 
-29.080046 -55.874413 -72.332517 -63.906277 14.431475 19.099237 90.671051 96.991489 -78.108559 385.498810 -33.417227 -41.999553 -65.960939 -89.655247 59.147373 -135.504659 25098 24842 
0.087662 -68.768977 -92.212660 -68.453647 39.924000 43.519906 100.195343 45.708372 -82.515051 293.833089 -5.640736 -22.254363 -38.473678 -73.345513 85.795720 -157.399467 25099 24843 
-12.301628 -56.389509 -113.149131 -49.198451 61.439133 17.261877 108.488549 43.849161 -16.512391 -263.085695 40.558016 24.813057 88.250269 32.486000 163.841363 -70.350618 25100 24844 
-15.509626 -42.995446 -87.036421 2.038649 48.243649 15.580538 95.417174 -15.738517 30.582695 -298.307240 18.633571 -3.942322 100.069247 41.384530 132.277264 -20.697744 25101 24845 
-28.471971 -30.009127 -30.389274 6.226432 43.610292 -3.282155 78.082477 -35.766675 33.343002 27.243823 -61.119669 -92.917062 36.139222 -10.430139 66.031492 1.709332 25102 24846 
-25.877503 -15.699965 12.682160 11.112883 47.318210 -18.477320 45.938483 -56.996948 -12.739936 347.028521 -132.726197 -135.943384 -17.609331 -47.924456 -16.637835 16.552619 25103 24847 
-15.873060 -8.777032 20.499792 25.084341 40.042944 -39.161465 24.291807 -46.107328 15.485583 -127.854769 -61.869732 -3.991280 47.523695 40.060193 4.870003 85.776306 25104 24848 
-23.010043 -19.096067 14.073946 9.948202 55.999247 -25.624336 25.746164 -38.037114 11.998409 -205.168899 -1.263099 61.689784 13.549173 49.090108 -15.289175 85.393700 25105 24849 
-29.205626 -33.830375 6.895350 -2.036392 65.575702 2.749028 25.169015 -35.316702 -26.444632 143.149224 3.399805 14.196617 -63.374674 -25.574082 -70.231876 24.879617 25106 24850 
-31.568232 -30.224759 -11.988760 -21.049712 52.360127 14.652487 40.945784 -13.126935 -19.655722 121.445262 21.393455 7.181462 -55.510064 -37.842435 -43.523673 6.511717 25107 24851 
-0.873799 -2.552648 -7.263197 -27.599703 -1.919960 22.801595 5.451049 11.956663 -40.905906 137.062566 0.913718 23.109059 -41.237819 -11.099797 -57.310429 -10.531390 25108 24852 
29.126178 56.863815 54.209336 22.587331 -84.675850 -17.354902 -95.383486 34.627579 -55.190449 92.091596 -31.934212 38.023854 15.168409 18.140650 -57.757158 -18.542690 25109 24853 
31.852323 77.685136 76.250653 62.595773 -98.988620 -25.557913 -143.097406 19.260053 -47.207748 115.203364 -54.140376 -1.278631 43.347725 4.543940 -23.714542 -36.753732 25110 24854 
10.466358 51.686029 38.814691 44.056871 -54.837813 -7.160301 -86.068967 3.043132 -28.670487 120.387561 -49.392678 -27.170544 41.054237 3.517337 -11.241914 -48.483514 25111 24855 
-2.329908 25.639542 12.957968 38.610453 -7.685093 16.994233 -82.284116 -1.903078 -36.945229 126.142343 -25.216202 -20.191473 41.339987 2.359003 -19.297613 -68.190815 25112 24856 
-21.148967 6.417401 23.620388 32.034351 42.228339 22.327320 -101.577518 -3.901313 -37.199988 55.673868 19.996212 -20.089488 69.590412 18.211274 -40.009294 -66.172997 25113 24857 
-35.658558 -15.999522 16.181999 1.529903 81.760851 16.465483 -56.938011 -7.342145 -7.272917 21.216922 42.366705 -37.406908 65.976120 7.442802 -59.074885 -33.247840 25114 24858 
-29.494861 -31.170864 -22.569789 -41.577397 99.762961 25.815964 -5.834280 5.068266 51.974428 -109.875584 28.937952 2.252072 31.969450 -18.988079 -24.366573 38.096333 25115 24859 
-7.462371 -11.354835 -25.009912 -67.304850 48.959924 6.023754 35.921659 20.226631 95.470076 -192.829294 -5.301321 24.547733 -3.732858 -50.934211 17.511545 115.268329 25116 24860 
7.326087 4.747076 -16.964825 -63.989433 -10.640432 -12.990595 49.014047 43.498074 81.596864 -75.212418 -51.877345 -36.458299 -37.512357 -58.968089 37.892891 140.538753 25117 24861 
4.754291 -3.283501 -24.346341 -73.282450 -5.933530 -6.374315 54.720631 53.745214 124.582589 -441.757074 6.653578 -25.755992 8.217256 17.247141 90.649259 220.163243 25118 24862 
12.288131 -1.365340 -32.051034 -67.793660 -1.270966 -1.280882 46.725878 44.747873 109.868938 -318.341801 23.813664 2.311671 -24.868280 -20.588676 25.543027 202.261457 25119 24863 
20.042926 1.934850 -30.925385 -9.706544 -21.521819 -0.861529 21.527221 19.510279 82.560052 -84.112727 -12.310438 24.030148 -82.201635 -31.779220 -24.735742 128.549562 25120 24864 
8.561550 -14.305845 -18.205148 43.066688 -0.942468 4.324732 10.628085 -33.127593 84.067931 -192.413718 9.877679 35.051145 -66.955023 31.786866 6.958238 91.626883 25121 24865 
-1.240526 -10.255203 17.104262 46.858962 7.140200 5.700300 5.710318 -71.018313 10.464257 36.366026 -17.089226 19.009562 -29.538675 31.528454 -40.856062 -9.884337 25122 24866 
14.390383 16.092565 58.017926 19.614244 -28.445766 -0.279709 -12.689755 -66.699888 -28.403392 75.790605 6.813112 16.446293 40.242771 42.208926 -69.280430 -83.817886 25123 24867 
24.892619 39.736601 82.147518 4.050831 -55.975569 -13.903979 -47.911281 -33.036739 -48.383776 133.764349 77.241465 12.786070 37.505299 16.969410 -97.009853 -132.872962 25124 24868 
20.841792 51.492645 90.889683 23.537335 -99.431910 -30.314317 -60.848825 3.833597 -49.854669 92.031780 91.319644 34.845266 36.629165 5.706473 -89.411154 -121.266505 25125 24869 
0.770473 40.206818 72.566667 42.771454 -115.544852 -38.333121 -29.355828 26.918388 -111.422347 468.206588 34.453353 -45.830637 -3.316407 -49.913347 -132.824734 -159.352468 25126 24870 
-20.227204 40.403456 36.562228 44.322041 -128.711853 -44.617243 18.354740 53.913834 -81.634621 401.813086 56.625125 -8.576307 -72.401757 -49.384989 -124.132934 -122.307603 25127 24871 
-32.089950 7.215456 -40.022958 9.684122 -107.328332 -3.982520 66.419493 100.104689 -25.181276 184.760748 39.432900 76.267043 -134.349518 -30.855330 -67.502256 -42.572309 25128 24872 
-43.286781 -101.862544 -153.623147 -80.319530 2.894043 90.336065 147.623572 138.238321 -17.488051 206.338409 -13.406419 -13.286292 -78.031929 -27.042761 -35.133343 -21.949614 25129 24873 
-10.125188 -132.690479 -180.588640 -194.117121 77.083950 110.228624 185.403661 144.805191 16.684471 49.587184 23.630868 -3.624176 -23.899005 -16.515961 -56.665807 10.802426 25130 24874 
