-8.643980 3.553749 12.771693 13.426032 -5.269948 -9.523238 9.806961 -16.121269 103.008886 -28.454347 38.600736 -186.310658 -55.331813 -29.433740 -137.838021 295.758957 21282 21026 
3.940021 -47.187344 20.723086 91.032039 25.782785 78.354786 -37.908290 -134.737082 131.764914 -257.959602 108.957195 41.732128 -20.505211 14.059539 -145.345275 127.296312 21283 21027 
-68.306603 -99.881205 -8.028982 265.985278 9.912303 265.763377 -135.520728 -229.923440 111.076830 -91.791682 64.658142 -124.112280 15.880734 -30.288254 -139.295290 193.871800 21284 21028 
-70.431236 23.517958 -14.316405 102.148101 -58.584164 34.816658 -34.447217 17.296305 51.129080 -54.966553 25.397172 -28.631053 15.365345 -15.337180 -71.820724 78.863911 21285 21029 
26.778298 79.630740 19.748260 -118.239815 -24.819733 -208.707273 85.250080 140.359444 82.771993 -132.102765 14.283969 -57.712690 32.819175 -7.117903 -68.685023 135.743244 21286 21030 
7.506873 -11.364995 -13.194270 -50.441400 6.009734 -37.091852 34.872530 63.703380 31.085924 -155.196608 -12.961703 -44.789441 61.782058 27.175310 -4.980099 97.884559 21287 21031 
35.091992 23.590812 4.338955 -117.746009 -3.420115 -93.746142 68.871434 83.019071 37.405056 -30.722581 -5.682039 -58.086084 35.695747 4.112079 -57.443761 74.721584 21288 21032 
33.584011 18.608753 2.113109 -103.358029 -1.835099 -37.938764 44.389717 44.436302 -99.061787 551.323602 -68.613478 -120.749104 -46.322116 -71.802416 -105.627674 -39.147030 21289 21033 
31.290796 15.483427 -6.374353 -107.583858 -21.345701 -20.773407 47.492172 61.810925 -105.310659 800.774608 -76.451965 -102.248090 -117.257722 -130.757029 -166.000728 -102.748415 21290 21034 
30.180332 -14.771546 -16.857022 -81.944078 -10.479913 -21.116983 61.319107 53.670103 -74.227058 573.492844 -68.084562 -143.189012 -81.434906 -81.684860 -86.090041 -38.782405 21291 21035 
6.038377 -38.225293 -34.963113 -18.670753 -16.230081 15.073449 38.778285 48.199130 -57.752985 575.211772 -51.737108 -151.987627 -18.639793 -32.014952 -235.129359 -27.949948 21292 21036 
26.705962 -6.128373 -16.484511 -24.308713 -23.886288 -36.011109 24.629482 55.483550 154.785263 133.273329 44.011142 -19.784559 28.445173 -59.549658 -414.682515 133.501824 21293 21037 
9.891487 -2.730645 -22.544121 -9.606173 2.484616 4.787294 -9.878476 27.596020 345.588918 43.031013 22.363956 -2.181999 -81.676327 -206.330194 -267.155993 146.360626 21294 21038 
-9.525462 19.017988 -22.579880 -26.830753 30.410777 -9.053047 -5.996969 24.557348 35.162657 -135.751780 -6.558254 -17.772154 -20.497588 -1.274061 124.039010 22.652169 21295 21039 
-39.948679 6.897134 -20.133697 13.618142 60.969788 11.707350 -25.430018 -7.680019 -158.283903 -452.827961 15.968656 88.500153 79.309437 171.294873 268.257849 -12.219104 21296 21040 
9.071363 109.714663 36.023068 -212.271301 91.230486 -252.906484 86.373119 132.765085 -22.192400 -221.532529 -0.035357 37.801048 11.842044 45.158551 159.053610 -10.094967 21297 21041 
-114.548880 135.450497 -96.339216 -82.813714 -187.704142 -121.937523 130.460192 337.432787 -92.635533 -345.320540 13.482235 67.727986 53.915078 113.207888 206.266759 -16.643873 21298 21042 
-71.108679 -23.497303 -63.423865 143.741957 -165.890906 163.006054 -27.469590 44.642332 -152.733747 -437.426786 3.977095 220.681363 71.824292 142.001924 350.524548 -198.848689 21299 21043 
110.993872 -56.386762 110.068466 -11.014872 100.355193 15.872188 -63.670611 -206.217474 -129.632428 -500.102331 -31.268321 231.219638 48.731656 130.167187 502.145499 -251.260900 21300 21044 
-3.377632 -40.695290 -0.643969 96.839441 -48.068073 114.760317 -43.797709 -75.017086 83.937804 -494.798564 -5.463490 4.999966 45.305560 70.793454 159.694578 135.530693 21301 21045 
48.704255 -45.195795 48.407236 38.253625 31.144565 56.313114 -50.364233 -127.262766 14.830238 -142.835771 -8.975287 -32.295036 71.932259 64.748140 -85.301080 117.896536 21302 21046 
51.065856 -125.312164 54.562377 176.110122 59.856473 196.059488 -100.563539 -311.778613 -30.648432 -97.969554 28.751801 -1.744553 67.639791 60.094476 3.472974 -29.596502 21303 21047 
75.322764 -183.191440 154.015173 174.533776 70.257801 233.585736 -151.220581 -373.303230 35.926457 -155.715772 113.592718 -44.081594 38.783239 27.001053 -50.771248 35.265148 21304 21048 
5.221087 45.904260 100.179690 2.313484 -167.917986 -9.572037 -55.266546 79.138046 -5.078597 -152.225481 123.093652 59.846368 3.017202 14.589240 -24.639225 -18.603158 21305 21049 
-36.830739 167.443667 -61.283907 7.940497 -223.844395 -63.178423 -32.829228 242.582527 101.111607 -580.396709 152.132187 103.764381 36.746385 57.482694 29.396895 99.762560 21306 21050 
60.445653 76.061096 -22.697029 -147.039733 67.534526 -136.890637 -13.896527 116.482651 49.089726 -168.303446 52.990216 36.330992 -39.959590 1.264273 -9.132612 77.720441 21307 21051 
-15.735187 31.309573 -105.308830 -26.662925 8.312689 -42.399172 45.950192 104.533661 14.928880 541.451787 -41.527350 -106.515025 -148.287690 -148.637513 -104.708637 -6.704452 21308 21052 
14.978141 13.431698 -39.312882 -3.347201 92.745317 -56.675161 22.066983 -43.886894 -19.411754 615.865773 -61.336257 -187.885998 -95.615717 -117.282770 -99.562661 -34.770616 21309 21053 
-36.078402 1.125201 -55.084137 11.551692 77.045028 -12.655817 40.163618 -26.067183 -31.310108 546.674280 -93.387677 -160.654766 -69.390999 -93.664786 -52.184336 -46.081609 21310 21054 
-36.782063 -51.203522 -46.836048 -12.660876 117.117076 34.022478 61.636483 -65.293530 -74.197117 676.641645 -147.467805 -84.388167 -95.136892 -127.960706 -98.347578 -49.143380 21311 21055 
-28.611350 -55.170672 -3.560637 -15.488439 53.121917 30.393302 63.261414 -43.945535 -49.673554 590.766156 -149.168073 1.338781 -68.874204 -95.668438 -233.924201 5.203532 21312 21056 
-29.304881 -27.535334 16.237744 29.550955 -28.391775 41.641682 42.040562 -44.238953 176.797697 -72.158239 -67.361789 -6.683422 -40.907276 -93.390407 -148.567239 252.270674 21313 21057 
-17.319054 -16.969226 35.653305 -11.049316 8.621269 23.291149 19.717957 -41.946084 347.229227 -46.963428 -38.128292 -219.264194 -131.448820 -255.395090 51.121927 292.848671 21314 21058 
-41.704337 -28.245310 -6.122593 13.232057 22.958674 38.295267 14.350633 -12.764393 12.877544 -58.292866 34.345884 -31.246496 37.580788 20.164378 5.347865 -20.777097 21315 21059 
-7.867934 -38.917059 -5.359507 -17.589810 62.989973 -0.509163 5.064878 2.188622 -203.402664 -524.203206 64.227811 236.788712 187.626765 261.277071 105.253908 -127.568397 21316 21060 
32.543786 36.533905 -9.952048 -117.217416 -21.271906 -137.665163 51.939497 165.089345 -45.334858 -233.562857 34.883655 66.826062 72.751643 81.431105 83.894114 -60.888864 21317 21061 
30.193938 118.113739 -3.704816 -234.228397 -60.172173 -265.227029 107.341255 307.683484 -123.537017 -265.810280 40.535401 132.220424 108.883387 149.422348 58.253129 -99.967393 21318 21062 
-26.139161 13.617866 -26.466654 16.230656 -31.519700 6.074093 -1.688226 49.891126 -140.913980 -405.843459 33.584718 218.329643 115.526381 155.380838 235.305702 -211.369843 21319 21063 
2.175460 -68.765916 -3.841062 131.515108 32.645289 128.371837 -70.239467 -151.861250 -187.053325 -3.711916 -18.142017 215.705849 52.283923 98.542327 212.182097 -369.806939 21320 21064 
-6.469915 -10.571626 -7.094623 42.192050 -4.424538 34.542369 -22.156055 -26.017660 1.064495 -66.044216 22.557543 31.211776 21.958248 22.311568 22.761020 -55.820435 21321 21065 
-3.562141 -34.093139 -4.188023 84.509281 9.140964 78.380500 -45.170673 -85.016768 28.164463 62.235148 37.158241 -65.779006 -6.582224 -28.756308 -78.283985 51.843671 21322 21066 
20.180457 -61.775223 18.634756 112.658099 42.891794 111.493038 -63.781316 -180.301605 -44.311745 139.047899 -12.134192 -22.160811 3.365512 13.196850 -64.776213 -12.227300 21323 21067 
-25.122468 -135.228932 -18.231439 257.208161 69.436634 296.234507 -149.373269 -294.923194 37.441975 -115.719530 13.277800 -82.128543 41.671353 42.737524 -58.916629 121.636049 21324 21068 
-37.335125 -16.630295 -42.326983 47.970116 24.474426 85.950284 -38.179160 -23.923262 -24.407374 213.233009 -21.467922 -49.355702 -41.635516 -38.342653 -31.579257 -6.444586 21325 21069 
8.801760 79.093167 2.109024 -111.983262 -17.140749 -142.657918 73.920166 107.857811 31.333595 296.812212 -22.504885 -69.448844 -89.638526 -94.707155 -58.395738 6.549342 21326 21070 
1.112585 18.197579 33.136171 34.274208 -13.195910 -29.079543 -24.916950 -19.528140 -23.743115 283.668110 -25.543843 -52.650704 -57.418726 -39.105246 -67.607262 -17.599214 21327 21071 
1.385082 92.723492 45.486976 -27.526613 -71.133519 -115.767293 -0.358673 75.190549 -18.336275 167.187212 -25.004899 -57.063035 -10.624827 -0.616138 -63.214573 7.672535 21328 21072 
21.863244 47.322697 21.943327 -9.809214 -58.197028 -61.714934 -3.956600 42.548508 -3.608795 -57.099457 -17.021414 -13.138649 38.111747 45.677602 -45.327697 52.406663 21329 21073 
22.504181 28.568826 -17.927422 -43.571997 -64.398160 -48.475872 28.032853 95.267589 -12.410151 98.993079 -67.697050 -7.651416 -13.417405 -11.149016 -14.357437 27.689397 21330 21074 
17.408091 14.120986 -1.983200 -47.485499 -48.722368 -38.110610 35.177942 69.594657 97.319724 -719.096335 32.813162 71.529512 128.244355 106.814150 117.236178 165.139254 21331 21075 
-8.231958 1.886661 10.304570 -29.828136 -21.205692 -15.546333 14.253100 48.367788 120.829688 -742.164724 87.162551 110.214367 140.769572 116.753839 3.020825 163.413882 21332 21076 
2.854911 13.436773 25.530294 -58.523134 -6.144219 -41.844084 16.572269 48.117189 198.593184 -311.804299 84.022872 -361.386912 13.864754 -30.073324 -159.767733 566.551459 21333 21077 
-11.275881 -23.299473 4.295421 -34.621545 14.456829 6.498217 11.037360 32.909073 402.717602 -398.086203 151.269247 -127.723157 -36.852006 -140.370067 -174.749603 323.794186 21334 21078 
-19.365230 -14.413979 -0.394912 -31.914097 16.240350 -7.618580 23.514212 33.952236 88.794966 -67.323235 86.517564 307.551553 -24.320216 -41.132260 -45.934974 -304.153397 21335 21079 
-11.994241 -3.074838 -2.744222 -11.884609 8.019722 5.498513 11.547226 4.632449 -184.994941 -20.331645 10.592219 -1.102425 18.754644 76.367026 165.113122 -64.398001 21336 21080 
31.872534 84.143064 4.137790 -179.353814 -7.394808 -184.287499 111.652617 139.230117 -34.659131 159.931773 10.443602 129.537799 -40.174636 -34.514328 20.781408 -211.346487 21337 21081 
-34.307511 127.837204 -49.767887 -379.092587 -129.936057 48.930096 132.193194 284.143549 -112.760770 103.850095 -3.521511 56.083984 -10.899040 21.438609 78.420460 -132.611826 21338 21082 
-42.423264 -4.218813 -44.711026 -28.443525 -43.295410 154.750369 -26.956867 35.298536 -128.319810 -8.285411 -4.839470 151.908779 -5.105231 31.566071 194.972937 -231.897866 21339 21083 
55.501117 -59.539151 45.133499 230.214689 108.875430 -126.178617 -78.328308 -175.678660 -202.149467 386.285996 -58.960742 181.015153 -97.977454 -71.369996 290.687111 -427.530602 21340 21084 
-2.347984 -24.392878 -4.353365 52.623977 12.505355 68.906562 -42.828064 -60.113604 -67.002727 406.324900 -4.551591 -126.856389 -86.324370 -85.711607 7.040916 -42.919133 21341 21085 
23.040297 -39.654844 18.040415 132.894050 56.047332 -27.374817 -53.663943 -109.328490 4.817129 342.616266 36.404817 -90.307324 -17.932776 -13.215888 -275.341494 12.959271 21342 21086 
29.237470 -63.845008 28.457763 128.966101 64.117655 59.627032 -68.506884 -178.054129 -55.535223 453.812072 -19.559527 -91.493939 -62.501543 -67.585912 -129.923025 -27.212904 21343 21087 
-4.370054 -142.766677 16.769682 225.764225 109.397533 211.830271 -150.958219 -265.666762 35.131400 112.302429 7.695175 22.253296 -15.227150 -26.157170 -160.848241 24.850262 21344 21088 
-12.897207 -34.030464 4.571797 42.167464 83.596462 18.965712 -41.276467 -61.097298 24.836476 -252.270866 13.099989 15.372651 66.371996 62.398286 -21.662372 91.853840 21345 21089 
5.889347 39.443180 1.374031 -138.729785 20.560559 -67.269485 81.894740 56.837414 88.004235 -475.240587 64.143976 81.113269 74.507925 64.477425 15.431396 87.562361 21346 21090 
6.233264 -20.889631 14.304460 24.441219 53.727034 -36.268562 1.131812 -42.679597 3.219251 -106.613457 23.608988 40.927921 8.964525 20.291854 -14.423601 24.024520 21347 21091 
-17.228080 41.156343 -28.566165 -41.626508 21.052582 -14.804068 14.655123 25.360774 12.265849 -26.305296 -17.752640 18.550631 2.330482 -11.028596 25.591493 -3.651921 21348 21092 
-3.041195 6.610585 -25.827286 63.252392 56.127976 -39.693044 -9.449422 -47.980006 20.971155 12.416172 -58.427894 -23.074990 -6.264167 -6.666742 38.262080 22.784387 21349 21093 
-10.955453 15.869195 -7.907615 66.924477 20.460846 -36.744770 -18.087553 -29.559126 -34.925762 508.194544 -137.980099 -126.932803 -100.250909 -93.148453 21.171684 -36.128201 21350 21094 
9.831277 19.031412 25.413345 50.837831 6.889378 -93.059063 -14.491302 -4.452879 44.847759 -77.334150 -62.719414 -54.292459 9.235912 7.931434 83.135786 49.195132 21351 21095 
-5.423263 -17.793059 17.439716 -13.587991 33.199337 -32.934160 -5.816934 24.916354 93.768985 -375.235276 -12.592886 -7.985211 62.001240 67.325761 34.761775 137.955611 21352 21096 
6.591149 6.474701 18.673147 -124.993393 52.916207 -31.011146 17.136139 54.213196 121.514447 135.785435 -36.738565 -273.781360 12.950847 -4.491021 -400.190366 444.950583 21353 21097 
12.013106 19.118552 17.750036 -128.681497 14.230298 -13.800966 2.210355 77.160118 205.047863 -61.347463 -24.156005 -479.882437 -33.309319 -95.473425 -94.029344 583.150130 21354 21098 
-7.533728 22.726898 -12.161358 -73.459515 -58.900891 7.139210 24.112853 98.076531 44.900162 -358.252618 12.599771 62.817017 7.097437 4.262525 314.984576 -88.408870 21355 21099 
-10.749297 8.168946 -30.644304 52.903224 -158.726384 29.158544 39.154942 70.734330 -151.643238 140.205557 -37.204494 216.379663 21.471649 63.395729 58.272655 -310.877521 21356 21100 
34.592084 105.036756 11.990135 -81.400911 -213.698813 -221.926645 163.800717 201.606676 -67.570080 172.224956 -47.441540 36.893203 -36.432324 -29.027120 137.111321 -165.758416 21357 21101 
-70.824822 167.005041 -116.651404 -60.743267 -379.883485 -209.985897 197.337187 473.746648 -94.148139 98.781970 -23.157020 129.638754 1.903143 25.296857 73.872029 -212.187595 21358 21102 
-57.884396 29.006479 -84.272178 89.503738 -219.913850 121.427334 -11.624166 133.757040 23.640563 571.490201 -46.519887 -160.429125 -92.048769 -112.231567 -215.148127 31.246711 21359 21103 
91.531179 -48.620977 100.984268 32.963306 95.048175 62.149921 -79.541314 -254.514558 74.408474 297.000369 2.597115 -227.628676 -59.202048 -70.829394 -192.158557 175.812716 21360 21104 
-0.170858 -21.483708 -7.946864 80.595385 -56.264270 118.192978 -43.250252 -69.672412 -138.961603 411.980910 -31.392264 37.826669 -14.938982 1.390091 -40.200296 -225.704525 21361 21105 
38.474748 -35.968430 42.745373 43.753296 41.006184 79.152325 -57.469943 -151.693554 -148.632612 550.749481 -50.179300 79.572277 -39.741819 -68.203951 60.522111 -384.086188 21362 21106 
31.674082 -60.722170 34.584069 91.712521 50.814110 128.804898 -66.456889 -210.410621 -47.146436 -123.413314 36.534777 112.494737 -7.745600 5.492124 167.881601 -144.097888 21363 21107 
-21.952079 -132.348455 24.641486 274.008839 98.942239 329.716298 -169.542072 -403.466257 -19.338269 -192.692708 47.908109 218.913238 -53.336662 31.174264 75.233479 -107.861452 21364 21108 
-42.018774 -37.513588 50.994052 129.534487 63.418354 112.259810 -60.383090 -216.291251 -0.885535 -520.349276 69.222527 229.225374 54.196051 108.952284 50.000121 9.638455 21365 21109 
-13.033768 27.838617 27.891037 -7.596967 -74.334462 -103.843863 89.533549 53.545857 -17.984650 -386.506785 42.668276 151.722102 89.941223 62.044097 71.536097 -13.420359 21366 21110 
14.279975 -48.231198 5.610882 36.665995 18.144524 -19.252897 18.482149 -25.699430 -35.375127 -199.804976 14.266854 81.913389 90.900946 36.095110 47.028042 -35.024238 21367 21111 
-15.663411 5.220736 -54.228574 -59.039070 -12.732587 -50.478331 24.083973 162.837264 -10.829548 -436.674553 35.811657 71.862003 103.529904 71.425328 132.115448 32.759761 21368 21112 
19.552166 15.295031 -18.807974 -87.322428 -7.451819 -54.364929 -3.510357 136.610311 -93.955234 304.201098 -60.247486 -15.833790 -44.885053 -39.682195 11.292635 -60.889974 21369 21113 
23.573389 62.966754 -40.176297 -111.230949 -56.656608 -40.390427 -8.360464 170.274601 -118.588747 573.065958 -115.079004 -114.312818 -113.131354 -64.224003 15.190717 -62.920749 21370 21114 
65.174758 81.906723 -21.711098 -169.445385 -38.076949 -74.543244 -0.777295 157.472490 -39.289804 228.103227 -70.465546 -49.763301 -67.636525 -9.039296 55.174647 -47.083402 21371 21115 
28.147550 69.145659 6.927194 -114.182379 -17.892375 -39.478517 -9.653661 76.986528 -19.349462 307.996647 -74.344194 -49.105991 -45.412059 -24.505308 -70.561174 -24.718458 21372 21116 
-6.152748 54.407361 28.715731 -80.970670 49.814113 -36.323403 8.280396 -17.770780 181.768205 262.938856 -41.200812 -152.031951 -71.554248 -136.088381 -305.242977 261.411308 21373 21117 
3.387052 14.630327 12.199897 -37.504605 81.823858 -9.691431 5.347516 -70.192614 295.085295 -29.143129 110.294595 -229.500206 -125.822363 -352.623187 -214.961789 546.670784 21374 21118 
25.693391 13.250941 12.349261 -66.263435 72.871782 -33.037078 16.750856 -41.615720 15.587741 -4.763289 69.662630 -67.967931 -1.479284 -66.774417 3.984479 51.750071 21375 21119 
13.632830 -29.372561 16.800591 -78.988859 107.442952 1.948164 28.795802 -60.258920 -123.275046 -61.630207 -53.430236 67.620583 114.408231 235.554841 75.902150 -255.150314 21376 21120 
21.959771 25.508413 15.755798 -191.330186 78.937057 -144.007608 106.733059 86.443696 -83.820220 -163.900267 22.437473 62.018105 54.351682 63.786049 141.983003 -96.855825 21377 21121 
24.003602 101.315324 -5.116119 -302.683123 22.686344 -310.431885 166.006811 304.219047 -24.985000 -441.654921 44.089099 100.920375 123.918958 184.895478 106.483539 -93.667528 21378 21122 
-53.390503 -46.773705 -40.847412 -1.201327 56.015005 20.430681 10.702035 55.065225 56.441799 -356.867858 72.673110 -3.339939 77.899476 103.409851 -2.171669 51.955230 21379 21123 
-43.312376 -143.263079 0.597942 183.072475 123.462770 209.293736 -99.503609 -230.347860 120.533077 -575.115173 133.305805 1.789920 116.650103 165.663598 -128.271384 165.444056 21380 21124 
-33.811985 -68.460151 -12.967377 69.879715 63.412650 76.931530 -28.802117 -66.182263 66.087918 -935.694774 105.251695 170.424484 166.640792 240.518621 76.733361 110.037904 21381 21125 
-33.925623 -87.608914 -5.460936 118.799759 70.119211 124.904233 -57.219774 -129.607956 -0.460408 -517.246801 52.696948 135.745521 73.473095 97.720912 147.687697 10.383037 21382 21126 
-17.537879 -77.318798 0.136509 118.767673 63.248919 116.439572 -56.945254 -146.790741 58.770112 -350.081436 67.459328 49.416332 42.320279 74.307119 33.749186 24.059080 21383 21127 
-42.741623 -95.728968 -46.715422 200.098544 71.771680 221.942821 -134.280035 -174.346996 4.802689 186.805805 25.129496 -11.873229 -64.503097 -96.363128 12.633939 -56.632475 21384 21128 
-52.988998 -17.169807 -70.134569 78.612964 57.699462 95.228758 -71.953520 -19.294291 0.528049 86.582295 -17.294522 -29.813705 -1.082219 -14.436992 15.013147 -39.496053 21385 21129 
-19.347705 43.923956 -26.656292 -67.075966 30.553317 -77.305022 57.608511 58.299201 -18.623419 -48.753978 -0.613142 -13.528159 19.534479 -1.976292 63.039037 0.921474 21386 21130 
-3.865343 -16.414333 17.018187 32.716471 17.925795 30.203018 0.601486 -78.185281 -90.008328 409.904726 -27.283636 -64.348139 -49.000786 -70.437623 -20.988982 -87.837231 21387 21131 
5.640379 8.300548 39.973800 -23.826283 -23.126876 -41.813272 36.343449 -1.491746 -21.244504 -61.319480 -8.897475 43.149741 16.916320 0.881873 42.830580 -12.317055 21388 21132 
14.412651 -23.148589 53.513149 22.658520 -38.773301 -7.529020 2.032816 -23.166226 31.684342 -260.939804 -12.553995 108.334969 40.258216 13.938283 75.499380 3.778610 21389 21133 
21.662682 -10.688130 44.517862 9.163252 -98.267798 -28.271155 8.417028 53.466260 -2.695048 78.580282 -21.259148 32.125150 6.158115 -46.310286 -5.025383 -41.573682 21390 21134 
14.887705 -23.515069 25.926994 16.340432 -92.794697 -6.204023 21.999716 43.358943 -22.144934 84.778864 -11.516600 -23.746918 33.563098 -15.201425 4.791705 -50.523791 21391 21135 
11.739422 -16.652380 -4.473423 22.225980 -69.805306 1.038436 11.501559 44.425712 -56.264576 142.416833 -0.344040 -73.567212 34.458710 15.986688 0.507479 -63.193882 21392 21136 
15.711765 29.113428 -20.156055 20.865752 -63.408951 -37.302774 14.074597 41.102238 -196.471060 471.798964 -86.445676 114.237579 -22.464401 9.225962 8.389341 -298.270708 21393 21137 
1.240358 60.794827 -28.842122 37.213400 -49.125300 -29.807210 1.262581 7.263468 -281.998990 317.869116 -97.940905 402.173228 10.169687 107.780629 20.477955 -478.530720 21394 21138 
4.679665 59.693630 -14.673192 16.865252 -36.992597 -54.942553 8.614282 16.755514 11.233491 -10.832864 2.324891 -5.541237 -39.010723 -20.855680 9.423037 53.259085 21395 21139 
5.794655 23.816845 -13.558962 11.816131 -8.945064 -36.243982 1.792454 15.527923 145.478066 451.543061 -46.143655 -362.177035 -160.446833 -194.825135 -114.308865 280.880396 21396 21140 
47.216373 105.729035 22.190973 -196.091476 6.243135 -235.638891 98.286296 152.064555 25.501726 443.819353 -45.660741 -152.734702 -113.428954 -117.570857 -121.734020 81.808195 21397 21141 
-98.011587 123.166691 -100.807329 -82.218430 -209.122771 -141.600196 119.207980 389.385643 98.868523 266.962378 -21.606789 -219.961184 -101.221600 -120.158626 -92.936341 190.053640 21398 21142 
-98.567887 -8.627706 -58.432045 92.577055 -112.944847 81.695641 -10.717182 115.016971 176.172085 245.444429 24.446181 -242.095351 -111.495258 -123.695097 -240.691525 271.914535 21399 21143 
70.617193 -61.755089 114.684041 0.869793 145.795139 15.597831 -52.260844 -233.548064 265.164015 -126.652193 127.163507 -201.768641 -34.173654 -30.577470 -381.742920 382.587354 21400 21144 
-19.810302 -39.931568 7.112215 82.844575 -4.171088 85.319355 -36.999346 -74.363842 -9.146802 548.679000 -12.370866 -83.346563 -104.674392 -115.190653 -191.287879 -32.661844 21401 21145 
26.776393 -39.945435 53.022557 27.570904 63.668300 39.866790 -39.327911 -131.631597 -128.553775 798.090247 -145.523801 -39.313014 -173.870476 -195.511062 58.370797 -173.688916 21402 21146 
26.039389 -64.394469 39.513229 91.515637 61.115365 104.669382 -55.485343 -202.973190 -21.227655 204.653774 -117.296617 -51.627924 -49.718701 -55.517857 40.135128 50.599853 21403 21147 
-21.989045 -158.909895 -15.172480 256.402360 74.145933 338.555146 -139.133129 -333.898890 -103.561465 377.731628 -152.305133 -59.645502 -20.097018 -23.538690 49.869305 -68.453125 21404 21148 
-27.713817 -52.940009 3.464049 -3.817664 57.376958 117.915126 -21.032683 -73.251958 -22.568788 100.771869 -85.153646 -82.133717 1.656199 11.568204 47.722001 28.137877 21405 21149 
-5.878905 76.552850 43.072812 -185.372055 -21.826229 -131.771313 86.041711 139.181130 11.988586 -391.719881 31.446934 65.640823 69.647684 94.343153 91.229685 27.423015 21406 21150 
34.334117 41.228550 47.503287 -40.779698 -18.062161 -51.579711 -0.256403 -12.387980 66.640525 -524.537612 86.636357 77.755116 56.440786 75.357539 113.085986 48.621302 21407 21151 
22.991093 76.267146 1.591739 -46.806865 -73.774269 -104.028737 28.417963 95.341929 95.631743 -690.400209 148.650694 126.708360 62.637948 76.897250 114.451187 65.423028 21408 21152 
32.019797 21.346480 -8.177521 -20.067464 3.769307 -69.460676 10.511919 30.058159 0.161309 -42.183319 62.226501 -0.980180 -13.475768 -26.016349 46.023064 -25.755258 21409 21153 
-3.651345 3.278283 -36.374726 14.348465 -14.618095 -39.694908 8.680485 68.031840 -14.870289 -6.417190 31.828371 -9.745925 18.976950 -1.805266 20.383934 -38.350586 21410 21154 
30.944218 9.778320 -12.981031 -30.001531 -4.361442 -64.955076 17.901150 53.675392 -0.659576 -308.781076 108.677575 82.536586 52.174612 24.082460 73.286697 -31.317279 21411 21155 
28.806402 -7.423922 -29.544730 -25.285647 -18.567500 -13.977759 9.627952 56.365204 -67.272234 242.932282 23.102764 3.399028 -30.945451 -45.675360 -59.687988 -65.853041 21412 21156 
18.642199 2.985783 15.228747 -44.525893 -18.874723 -49.202098 12.239320 63.506664 77.837449 289.606536 -8.084510 -284.712199 -6.644854 -45.102304 -378.913827 356.013710 21413 21157 
3.116241 -9.364165 29.303018 -12.639880 -4.609303 -16.505116 -10.191709 20.890915 303.538838 194.437677 34.351476 -160.149927 -50.300943 -165.592031 -404.099182 247.814092 21414 21158 
-4.475775 13.689080 14.486467 -32.410305 1.992128 -34.188173 4.735559 36.171020 -14.266163 19.225648 -31.653855 215.295120 -2.907097 -12.994297 114.139786 -286.839142 21415 21159 
5.866931 28.260999 6.189443 -11.817650 7.826307 -26.076157 -18.658022 8.408148 -253.157364 -25.548637 -74.416012 40.955525 72.132391 152.524324 198.906053 -111.396280 21416 21160 
30.897479 102.244924 18.539325 -108.307634 -8.387825 -149.149612 20.353221 93.810121 -92.370240 -7.847235 -41.691775 145.592392 23.116129 44.860958 130.131622 -201.791851 21417 21161 
17.126860 190.632757 -4.519426 -282.798543 -44.711035 -320.720464 124.544607 320.445244 -95.883786 -427.359061 7.262556 144.126337 98.981431 146.343302 209.649890 -83.120670 21418 21162 
-33.960621 45.111665 -46.780149 -42.961180 -26.637937 -31.498335 28.867857 107.858700 -237.083029 -821.491494 -6.244202 476.462614 161.515124 254.938563 574.853715 -402.951289 21419 21163 
-8.812567 -89.236538 -11.464091 167.887333 58.437923 193.292370 -83.200140 -226.904290 -235.226203 -955.848184 -31.858537 726.150286 122.753077 205.276554 406.054269 -237.301263 21420 21164 
-12.254186 -18.570416 -21.286651 45.621795 15.060961 64.468698 -16.119472 -56.920731 62.391929 -431.869604 19.543984 -9.968609 50.208192 33.623481 -11.519238 287.589864 21421 21165 
-9.897257 -50.813180 -13.022371 94.485051 30.295745 116.245364 -43.220831 -124.072521 130.898420 -573.782423 111.076878 -138.405537 152.938837 131.170614 140.592949 45.510261 21422 21166 
11.789118 -77.812521 1.105174 130.661260 55.482187 154.496555 -62.764199 -212.957574 58.125138 -270.072592 69.909978 -27.602663 106.885883 90.507877 -213.855964 186.102344 21423 21167 
103.316834 -81.085287 74.113246 -6.261061 185.423780 50.675808 -71.817476 -254.365845 48.747399 309.997297 -11.758186 -214.215440 -4.655257 -50.073288 -68.833674 -9.208849 21424 21168 
12.758451 -48.694418 -5.611816 8.498267 59.955656 28.018336 -28.334532 -26.589943 132.888475 -433.883638 90.351234 -55.245360 77.511568 64.378275 -16.719201 140.718648 21425 21169 
-103.237303 -21.530397 -78.932270 111.424335 -75.603404 86.351097 2.969964 78.557979 153.978442 -174.395480 53.230151 -68.593180 -3.773072 -17.367484 -71.998104 128.918727 21426 21170 
-26.175727 -20.754302 5.948301 -10.561672 75.467998 20.409373 -5.630302 -38.703669 81.588370 -25.535150 8.188810 -93.040447 1.852094 -1.253042 -17.325053 45.524418 21427 21171 
-60.135987 -7.764003 -41.398487 1.354268 -27.044316 45.448848 37.559678 51.979999 76.780701 196.679112 0.296398 -105.403831 -57.685153 -46.435213 -130.569192 66.337177 21428 21172 
-5.104879 5.088796 -18.713538 -28.434350 -50.856608 41.473558 29.984936 26.562086 -68.504963 931.978658 -94.026331 -203.185545 -189.248965 -133.070212 -116.967285 -126.975357 21429 21173 
3.702131 31.345367 -22.201179 -70.159547 -78.579117 6.532157 40.253414 89.106774 12.941396 201.437278 14.284699 -36.885453 -69.816712 -45.781881 -119.985178 43.805851 21430 21174 
-19.258538 1.550545 -9.449144 15.382909 -42.876468 36.751329 10.711629 7.187739 1.313943 209.342389 5.339976 -48.647807 -54.524562 -61.974127 -35.090846 -15.758966 21431 21175 
-7.557149 1.822129 10.999697 45.879723 -1.820305 -23.947238 -7.297623 -18.079235 -55.059179 821.135101 -88.151724 -111.275103 -171.355816 -163.171803 -159.769751 -72.351725 21432 21176 
-18.038402 -20.666842 -16.692449 125.553431 -75.589927 -4.819873 2.961415 7.292647 48.391661 307.939345 -15.730927 -88.594468 -78.903922 -106.397094 -38.634144 -28.070452 21433 21177 
18.888364 2.449720 20.848986 84.631114 -133.548939 -42.058447 25.678641 23.110560 9.535436 156.050734 -9.817790 -39.581329 6.551699 -42.661003 -61.869178 -18.208570 21434 21178 
8.611622 18.956147 16.840199 61.857871 -136.835950 -26.517491 20.743889 36.343712 -55.489042 290.787192 -24.053767 3.331887 -24.379837 -26.952596 -72.114897 -91.128941 21435 21179 
4.276769 -3.709556 7.760360 -22.710824 13.714744 -15.199415 1.195688 14.672236 -75.980327 414.920901 -43.164509 -37.064318 -60.623581 -41.783587 -81.205663 -75.098917 21436 21180 
10.840876 75.322312 36.730542 -147.475908 6.952291 -135.820262 62.120243 91.329905 -54.306781 332.350957 -37.456848 -16.123867 -41.174172 -41.278129 -81.653725 -60.357435 21437 21181 
-117.145975 128.144907 -82.395866 -39.455202 -197.737528 -44.511837 91.014518 262.086984 -6.067217 -128.782894 22.527505 43.812999 21.148969 30.713178 25.320926 -8.673466 21438 21182 
-79.374158 31.402027 -88.205448 13.180664 -62.671885 61.868393 -1.730151 125.530558 -349.226413 -363.168745 -2.838499 154.637644 166.724376 281.352119 241.984120 -129.464603 21439 21183 
97.026032 -19.334880 71.099119 -97.866103 177.224903 -37.940330 -48.384304 -141.824438 -344.936189 -379.479416 -4.723360 397.453758 128.038241 282.942474 404.648482 -483.943991 21440 21184 
-1.031066 -14.844792 -12.939111 15.170836 39.336147 57.411735 -35.416465 -47.687284 252.967350 -581.047144 26.903995 93.559622 -46.639147 -85.314794 304.185944 35.384175 21441 21185 
42.281458 -21.420062 26.868848 -32.531952 95.893000 7.770706 -36.458940 -82.403057 230.642854 -555.710750 48.138759 -153.984177 52.753136 -26.458303 -46.497096 451.115576 21442 21186 
44.181568 -52.662433 31.800668 32.387781 96.287580 67.307019 -47.440993 -171.861190 115.451898 119.614244 32.058286 61.068699 16.044252 -52.693302 -368.831432 77.287354 21443 21187 
22.851720 -190.630458 -9.114373 202.661659 110.029848 259.271472 -119.722591 -275.347278 105.517814 -53.422501 34.790455 -65.167601 33.438074 -87.333052 -104.361492 136.538302 21444 21188 
34.432697 -123.689023 -15.731863 -9.259616 87.387819 38.768687 -32.087154 20.178453 103.869215 -259.718619 105.096585 1.266783 85.601185 -5.618739 -122.731000 92.234591 21445 21189 
16.159315 48.740881 -2.834008 -137.675279 -10.363747 -156.691337 37.904892 204.759282 95.645973 42.456536 26.816096 -88.401284 0.064536 -59.352921 -84.619441 67.390503 21446 21190 
34.529241 85.494880 52.584143 -23.687838 -32.752603 -92.829810 -37.812681 14.474669 39.960277 72.872569 -23.200020 -92.481688 -47.109613 -11.639101 -50.141629 111.739205 21447 21191 
-10.795674 128.007437 40.346054 1.496421 -88.840609 -89.185961 3.741804 15.230527 90.756716 15.046702 12.786101 5.203237 -108.980492 -29.633049 -55.789800 70.610585 21448 21192 
-7.331369 66.515963 80.972462 11.987644 53.315208 -53.661782 4.388116 -156.186242 -13.456563 324.195524 -67.990376 -116.332705 -90.193224 -57.159543 -38.523277 59.460164 21449 21193 
-46.981610 22.083524 42.541407 21.314548 81.101138 5.126201 22.503462 -147.688670 -52.601980 640.743358 -120.900826 -105.562215 -62.822677 -94.556158 -138.194231 -66.105271 21450 21194 
-39.394867 20.726153 28.010510 -3.678880 58.394395 -0.238740 34.057484 -97.876057 -42.773685 465.562817 -94.240209 -111.119730 -64.366627 -84.924613 -54.246582 -13.891370 21451 21195 
-39.764750 -3.120738 -3.622377 16.944488 -13.004002 21.040870 16.905135 4.621374 3.513292 225.207113 -34.026867 -15.972300 -70.179825 -58.595296 -26.193561 -23.752557 21452 21196 
-14.100879 -17.017730 -32.097085 -45.453235 -15.485772 -24.218532 35.043603 113.329629 -67.341248 196.597655 -28.503788 -9.313657 -93.375357 -73.589774 176.661745 -101.135575 21453 21197 
-0.694750 -43.334888 -45.301321 -42.604695 0.975999 -12.761919 14.780942 128.940633 -175.790935 133.516581 -41.152494 149.406277 -33.978216 -2.486586 236.096753 -265.611381 21454 21198 
9.906426 -17.410534 -34.765191 -84.674920 -28.744202 -23.726462 18.329839 161.085044 -7.326761 -263.846562 38.084722 107.698008 61.738641 58.414523 17.946276 -12.708848 21455 21199 
37.841473 -5.857598 -18.783085 -117.020958 -28.033083 -17.479555 17.203789 132.129019 87.873272 -182.932544 54.442050 -43.993075 21.911268 11.971381 -102.047005 152.774652 21456 21200 
73.676777 43.964746 -6.948418 -239.702440 -31.396510 -155.586067 93.768594 222.223318 16.768465 -119.901555 25.461438 34.142193 28.264827 23.152355 -30.222172 22.334450 21457 21201 
-31.341981 39.758840 -107.864066 -47.488381 -194.877231 -45.948546 102.781321 284.980043 31.627584 -142.309665 29.683993 -10.748353 28.261780 23.308857 -37.210230 77.386034 21458 21202 
-46.257640 -11.591689 -78.961096 90.699971 -87.495597 80.576047 -1.551213 54.581216 -252.250941 -706.888152 51.494335 134.855539 223.265126 315.999839 224.546996 8.977258 21459 21203 
78.620919 -15.616190 73.662307 -51.789059 158.442177 -31.005702 -36.533833 -175.780619 -308.856372 -530.332037 44.407783 375.184181 206.960804 295.052058 240.438843 -322.855260 21460 21204 
-2.628520 -32.859496 -12.495469 89.344894 8.044988 80.540877 -37.273876 -92.673399 136.720616 -32.778995 6.662816 55.593630 -76.010474 -159.323037 185.149403 -116.013959 21461 21205 
31.374009 -19.612248 30.937259 14.679791 74.170596 15.236670 -31.649689 -115.136389 208.329198 -522.214103 76.973625 -180.460714 33.636440 -20.243595 53.651400 350.327749 21462 21206 
28.982082 -60.909258 27.780351 101.807844 65.760078 95.082105 -55.972592 -202.530610 194.438799 -341.271541 96.661952 61.292102 34.973164 50.642025 -237.478402 140.741902 21463 21207 
-23.630322 -165.212313 -22.498916 321.634517 63.271858 338.993933 -157.164871 -355.393885 110.380792 -89.826557 -20.058886 -86.316253 -36.449428 -20.923412 -12.119934 155.313678 21464 21208 
-12.050500 2.127166 -24.417379 116.933417 -11.363077 87.750197 -61.612839 -97.366987 35.435345 272.507982 -38.217508 -78.609559 -67.610631 -30.533182 -154.841117 61.868670 21465 21209 
21.219362 138.095107 -7.783265 -118.995907 -53.982744 -181.898863 74.621197 128.725113 129.422585 -204.043324 34.815326 -4.657840 -12.166357 -4.988983 -18.544045 80.162638 21466 21210 
5.447741 -7.689807 -0.016434 -56.631624 52.630885 -18.400594 26.120986 -1.461153 44.364134 60.107393 -21.194022 -83.040774 -0.591411 -16.061011 -40.238417 56.654108 21467 21211 
9.190176 9.726852 -1.945631 -124.251010 -15.209314 -66.137283 51.460108 137.166102 -12.142259 507.973797 -28.084854 -33.564930 -63.482184 -112.599416 -148.974306 -109.125848 21468 21212 
45.876085 6.429606 35.727860 -128.675195 15.747430 -74.777556 12.958564 86.713206 -56.333855 370.035742 8.763377 -7.984640 -53.348993 -101.291645 -75.621626 -84.218360 21469 21213 
14.111942 10.696623 12.354641 -83.404558 -19.190202 -38.347166 16.397598 87.381122 -99.673682 739.969688 -61.148722 -17.270253 -101.535277 -118.873335 -156.525512 -184.942907 21470 21214 
21.451000 32.907119 38.046975 -95.096128 -4.137460 -75.335073 28.508856 53.654712 -31.224849 221.775227 -38.492361 -80.362502 -4.427518 -29.106943 12.503028 -50.664081 21471 21215 
-18.060446 7.231133 22.023160 5.978609 1.789573 -19.053199 -3.617935 3.709106 -2.967963 200.057548 -14.852904 -55.167311 0.180289 -39.876577 -28.545136 -58.827945 21472 21216 
-27.824382 20.106488 13.774475 19.989875 7.714256 -36.660975 0.789315 2.110947 -4.039211 251.998371 -9.311281 -93.942835 -39.633355 -68.239274 -90.499386 53.666972 21473 21217 
-42.170194 -11.210157 1.183591 113.136840 -6.583270 10.017149 -16.276978 -48.096982 -30.343955 423.303060 -78.352740 -119.837158 -51.111820 -67.563785 -127.972452 51.878850 21474 21218 
-43.708425 0.931844 11.921851 136.047072 -47.752412 -24.258281 4.384535 -37.566184 -45.772673 115.682196 -72.923844 -37.146972 -6.235521 -1.087608 82.547595 -35.063172 21475 21219 
-37.958324 -12.679035 28.083020 129.769816 -22.659999 8.066065 -8.439844 -84.181699 -22.614596 -250.995490 -0.225594 42.042873 45.762266 63.489904 118.511521 4.029115 21476 21220 
-2.147280 15.207623 34.853924 8.059888 1.023984 -80.608233 36.874102 -13.264008 -42.682905 51.826916 -44.427802 -3.989647 1.475902 12.353942 62.017149 -36.573556 21477 21221 
37.819534 87.941131 30.721128 -190.934514 -33.132582 -255.040390 124.624708 198.000984 -34.240756 -143.755629 -11.458471 24.726604 28.191980 45.150105 105.457183 -14.071018 21478 21222 
-20.453745 14.913417 -12.797786 -23.686631 -37.843035 -26.401479 21.100566 85.168694 -203.593720 -475.301640 31.559534 447.129560 183.366148 263.477505 94.752685 -341.390073 21479 21223 
-31.448733 -70.978076 -2.047133 154.222260 29.684590 169.666760 -91.768135 -157.331533 -265.035387 -279.119832 14.550050 240.233148 143.896152 255.809546 116.776853 -227.110530 21480 21224 
-12.719792 -21.917460 -3.654986 49.064430 -0.620726 58.648734 -27.785185 -41.015014 39.936691 156.339962 -35.163038 -280.680287 -131.928120 -110.042752 216.123338 145.414205 21481 21225 
-18.486482 -37.924127 -6.105258 80.738547 11.298716 99.636209 -49.954209 -79.203397 107.674791 -84.725562 25.918704 -51.867777 -52.068525 -51.117405 112.190768 -6.004993 21482 21226 
7.366763 -65.027929 12.675868 112.681192 37.667313 132.107914 -64.995873 -172.475247 59.387682 219.864031 37.205149 -149.171161 -50.130044 -53.281423 -134.077805 70.203570 21483 21227 
-32.847759 -168.520236 19.064717 306.551435 59.157529 345.040243 -186.604706 -341.841224 74.367875 220.274630 -7.798511 -96.543888 -96.539149 -126.793528 -10.372207 43.404779 21484 21228 
-60.251931 -56.262462 -15.414278 146.911223 -20.480770 139.963676 -85.784872 -48.680586 77.105107 -286.318710 37.467829 1.770052 56.020171 18.271043 -23.558853 119.243361 21485 21229 
5.277738 79.977878 -33.690781 -150.954904 -34.137606 -189.841816 102.157774 221.211717 70.953672 -207.805462 41.621309 -12.842952 -6.026848 -30.703084 -0.670247 145.473612 21486 21230 
-5.657792 -25.819287 -17.605310 -2.578556 38.043438 4.835403 4.683602 4.098501 23.228278 -99.613286 39.053891 89.527175 -44.140328 -37.171078 -25.510189 54.625536 21487 21231 
-2.162208 43.984185 -7.527156 -104.035266 -22.610794 -75.077103 68.637587 98.790754 56.731834 -441.563261 2.301228 36.000792 96.445733 54.665452 39.897111 155.521111 21488 21232 
18.731764 32.277051 -7.451273 -67.531870 -17.825106 -8.945105 40.723981 10.020557 -16.702942 -143.414102 -73.281779 33.283239 85.478592 40.928214 57.718703 15.990076 21489 21233 
19.660284 51.340414 -16.955721 -64.425810 -21.998760 -26.749319 36.559669 22.569243 -25.940227 203.211044 -82.802099 -69.983651 -12.765569 -11.871718 -6.431092 6.583312 21490 21234 
0.411771 46.942233 -18.949831 -52.648738 -16.731614 -39.133051 37.334325 42.774904 52.581173 -201.529837 -42.479876 0.983532 33.687977 43.247880 74.653631 38.855519 21491 21235 
-29.866639 6.231673 -25.416919 -35.254962 18.990993 4.679637 26.004710 34.631507 14.685524 6.195326 -37.493982 -17.558621 22.526606 20.205590 -27.141834 18.581393 21492 21236 
-18.144512 -8.354782 -32.381257 -79.944444 37.881614 -11.942658 40.801457 72.084582 27.912212 147.058037 30.063695 -27.032143 -10.709455 -10.675367 -210.519288 53.902310 21493 21237 
-0.247747 -28.550331 -25.487479 -61.820792 49.878927 22.583928 -1.909867 45.553361 87.808444 -23.335096 94.428007 -77.741220 3.132615 0.167402 -224.498818 140.038665 21494 21238 
21.920837 26.027905 -12.970303 -97.894763 15.802123 -35.375059 7.918555 74.570705 25.568061 -224.688503 49.449154 27.079642 22.447902 14.769024 101.382196 -16.007477 21495 21239 
19.379447 48.388132 3.510579 -1.531271 -30.998783 -27.344681 -34.506623 23.103201 -44.951320 -120.501302 21.293219 109.940622 14.157975 24.617536 107.561712 -112.118442 21496 21240 
61.163057 95.285297 29.834212 -90.158311 -40.096900 -172.395227 11.213438 105.154433 -8.403090 -96.162958 29.177845 34.259711 8.777726 11.385298 63.155866 -42.190398 21497 21241 
100.808780 173.084240 44.853797 -313.382388 -80.491845 -370.757119 140.480488 305.404045 -31.315024 -79.718521 17.258301 74.555187 7.375707 15.528906 80.960747 -84.645303 21498 21242 
21.102678 61.598510 1.374294 -75.470377 -79.893597 -82.628314 39.165004 114.751802 -185.841881 -258.388214 13.669518 246.635637 74.385457 114.675516 294.596852 -299.732887 21499 21243 
-9.706997 -86.370556 -14.570336 171.980556 -1.478906 199.000900 -93.338360 -165.516301 -223.118045 -259.574892 29.002523 489.235737 114.307915 152.975055 264.630965 -567.459259 21500 21244 
13.628639 -13.263291 5.451640 34.859177 -19.684441 38.868368 -19.777238 -40.082854 37.925314 9.825647 8.019765 22.120557 -19.064848 -28.240369 -24.355733 -6.230333 21501 21245 
-4.867261 -47.682512 -6.369431 97.067985 -4.572040 110.046750 -50.092463 -93.531028 132.393863 -378.894631 19.266113 -183.749053 6.191598 1.338383 52.407641 351.046085 21502 21246 
14.548963 -56.219325 13.855712 93.579172 19.274605 101.916564 -48.139549 -138.816142 58.261231 -20.402730 -1.593729 -32.420207 14.368333 17.541274 -139.380904 103.626732 21503 21247 
-20.676219 -122.657818 24.285136 205.687799 36.115130 224.391013 -105.154851 -241.990190 49.245126 120.964450 -28.509537 -144.147420 -52.090223 -46.551980 -62.825868 163.915450 21504 21248 
-55.175673 -71.214974 -2.254308 105.171613 3.462518 137.794166 -31.615785 -86.167556 60.063634 -95.704014 35.365783 1.569868 -22.274463 -10.292655 -53.671402 84.943249 21505 21249 
-7.526654 25.265042 -18.240846 -102.694605 -9.926422 -78.609265 89.729612 102.003139 27.799097 289.922646 -16.979456 -95.725755 -61.568041 -80.292706 -106.808652 43.652866 21506 21250 
2.230701 -48.233799 -11.706571 10.805224 38.523758 30.076731 1.750493 -23.446538 -11.244999 352.085749 -7.407052 -140.690619 -37.221945 -82.520380 -88.338547 15.337794 21507 21251 
-5.359101 10.426575 -16.897782 -29.726401 24.225595 -52.874101 10.448509 59.756706 7.385051 326.329926 46.625390 -122.743461 -15.527170 -79.935969 -145.789314 -16.344454 21508 21252 
-3.506834 -9.743749 -21.977063 27.815727 32.722281 -15.116150 -34.889552 24.695339 44.521213 -18.546058 57.056049 -84.724109 21.146822 -25.235354 -38.777534 44.558971 21509 21253 
7.314792 16.039877 3.420301 29.753671 -16.636147 -52.889775 -33.053190 46.050472 -5.417039 479.860485 -29.153845 -92.608817 -75.095053 -87.465839 -137.385974 -52.733917 21510 21254 
21.465445 30.739043 20.793685 41.279390 -68.935438 -43.248913 -23.324090 21.230877 -72.552176 888.409394 -93.809308 -151.095086 -203.022707 -148.497932 -143.154831 -76.277356 21511 21255 
28.961712 31.728464 11.597945 -15.927317 -66.878416 -17.470669 11.544062 16.444219 -61.234639 620.113265 -48.645920 -49.489163 -161.779688 -73.279920 -153.820499 -71.863437 21512 21256 
35.527744 28.480795 -7.806790 -92.658739 -14.105671 -19.106060 42.021810 27.646912 -52.812178 397.393533 -69.442918 -220.374983 -98.921670 -80.572160 -6.283394 131.013769 21513 21257 
17.502671 -3.470136 -11.542056 -71.423434 47.694825 11.529068 25.947242 -16.238179 183.003101 -373.764575 17.860699 -322.905897 -31.313653 -81.085017 117.074601 491.130741 21514 21258 
-13.318878 -2.923421 -15.857871 -56.249018 77.713348 6.712652 53.519401 -49.596213 57.084733 49.833278 -8.135643 -22.886854 -18.806839 -16.228948 -90.234205 49.374476 21515 21259 
-25.375540 -13.310115 -34.035352 -29.489386 86.114751 51.899401 61.777310 -97.581068 -113.294796 -42.808464 -6.166326 247.519789 80.203829 122.502377 -29.744047 -258.212364 21516 21260 
-21.153474 43.159082 -18.243087 -135.282595 104.318976 -71.778470 98.127871 0.851696 -5.463479 -143.145799 4.774465 91.116235 38.815233 51.817468 8.504408 -46.418532 21517 21261 
-114.669932 72.525551 -91.400219 43.496187 -123.421541 -23.263275 53.497077 183.236151 -69.109936 0.299747 -13.063480 144.938736 43.714102 67.771961 -15.968549 -158.582581 21518 21262 
-61.338397 37.080074 -27.062045 98.250732 -147.371867 10.687890 -32.218900 121.972514 -139.827240 -370.856898 -1.846428 280.737216 108.797199 146.312341 227.287745 -250.603934 21519 21263 
66.394534 -12.748903 109.736870 -28.997217 76.567487 -60.062979 -56.827514 -94.062276 -200.585468 -119.268429 -40.037626 447.283991 103.562954 154.130831 124.473132 -469.559384 21520 21264 
-7.108249 -17.798393 22.958518 92.100952 -34.755540 40.050906 -56.604357 -38.843837 61.699010 -414.121788 12.750076 129.945752 53.463698 74.655780 50.737374 30.870098 21521 21265 
26.752030 -13.583876 56.144241 15.216711 24.149238 -13.634913 -43.961057 -51.082374 139.609329 -484.370076 22.847238 -172.228186 23.774282 31.333485 100.043007 338.990920 21522 21266 
28.375252 -47.931866 51.159321 90.338891 36.784279 63.858892 -64.132730 -158.452041 85.744520 -316.879999 33.250250 11.376355 90.016430 83.581022 -77.964433 90.875854 21523 21267 
108.923092 -35.400950 158.221148 -25.576878 167.160282 -25.887008 -78.243272 -269.196415 101.902935 -116.429876 -21.800984 -103.214849 2.144103 -20.236444 -5.250803 162.885918 21524 21268 
0.219378 -13.603163 101.577545 18.260293 40.899698 -9.734553 -46.581484 -91.037714 39.841791 88.619485 -55.489437 9.131055 -20.139672 -23.666424 -50.947216 12.650418 21525 21269 
-132.019527 -32.060409 -50.241819 168.190061 -148.577249 114.524558 2.928593 77.255792 64.500155 21.786364 -29.376382 -54.233798 -11.007731 -25.847076 -30.809051 64.987519 21526 21270 
-2.218344 -24.607458 30.474338 -62.444514 43.394214 -54.085324 39.397464 30.089623 -11.305639 273.054699 -13.770251 -78.482264 -46.037546 -68.725136 -47.946118 -6.787744 21527 21271 
-73.374039 -49.408590 -60.596234 51.609688 -43.338276 45.205885 19.025406 110.876161 17.610842 230.624936 47.323120 -38.595585 -60.729204 -91.009974 -82.937886 -22.286249 21528 21272 
-20.636516 -49.972047 -27.562335 -18.572165 28.315643 -17.728208 16.390291 89.765336 32.705608 -54.484370 84.058319 -64.510739 -15.666454 -34.252234 22.668368 29.481502 21529 21273 
-11.439683 -37.384058 -53.048421 -8.049490 -6.369254 -13.670890 8.275054 121.686741 -14.352033 59.099503 54.599459 -21.189249 -4.246358 -21.752722 -26.074500 -26.084099 21530 21274 
16.707078 3.824411 -50.387818 -15.581580 -9.707348 -28.097912 -13.028081 96.271249 -27.039457 -96.824994 46.684041 43.724038 18.980164 -12.633705 18.039359 9.070554 21531 21275 
62.284946 91.090578 -17.732476 -77.361918 -28.832467 -87.858305 -21.512592 79.922233 -78.735464 64.756167 -4.437145 63.161450 44.235007 7.702850 -54.903820 -41.779043 21532 21276 
49.050997 91.446862 -22.257456 -37.164604 -96.327692 -50.869067 -22.750151 88.871111 -130.576203 374.116274 -94.971866 -30.888058 7.773532 -16.805681 -35.784744 -72.863254 21533 21277 
82.689394 77.382431 16.377005 -50.961636 -79.104818 -72.473078 -17.326303 43.417005 -69.984983 -86.591527 -2.320044 77.390790 45.749517 53.125210 85.267360 -102.636324 21534 21278 
61.410797 57.511900 -20.316972 -16.028417 -114.852984 -15.282524 7.114970 40.443229 -10.435484 -23.240037 44.135275 10.522121 0.575686 7.826162 14.721227 -44.104950 21535 21279 
46.668192 -8.972660 -30.248097 -79.382879 -1.349342 6.898815 52.880249 13.505723 -9.890984 116.452100 20.577268 -36.113017 -19.005716 -21.559042 -39.151542 -11.309066 21536 21280 
2.005035 15.222120 -4.299416 -71.419467 36.696723 -47.857449 61.440938 8.211516 -13.180545 106.129248 10.872213 -20.311408 -20.423371 -17.110352 -13.306669 -32.669115 21537 21281 
-8.770560 146.356425 27.449350 -233.165907 30.976360 -268.245119 140.930341 164.469109 -21.795598 193.293447 -9.206362 -44.509354 -34.166144 -32.855940 -27.512594 -23.247455 21538 21282 
-50.847764 33.708661 -36.660468 -46.895756 18.612717 -19.237505 58.428034 42.892082 -82.377313 -109.359766 1.052505 122.879926 16.130609 50.662947 158.637798 -157.626707 21539 21283 
-42.563504 -99.725565 -25.327427 172.596970 60.093425 209.896090 -64.622675 -210.347314 -48.819533 -362.171093 53.393988 366.431964 60.677515 115.409737 161.081535 -346.004112 21540 21284 
-28.012252 -31.694107 -11.834845 44.063544 46.374214 69.383416 -0.935338 -87.344631 97.700219 -230.799739 63.596900 33.154821 5.546234 -15.723032 44.276419 2.248178 21541 21285 
-32.299963 -60.725314 -17.303327 101.184868 37.711838 127.347977 -32.397458 -123.518620 49.388797 143.371191 -8.667520 -236.897079 -50.611514 -101.214925 -23.112247 227.743297 21542 21286 
-2.392356 -76.591850 10.806372 109.443009 73.013419 133.515445 -39.542628 -208.251411 48.934156 46.959867 9.782187 -22.969366 4.549565 -19.972627 -147.380406 80.096624 21543 21287 
30.263793 -157.682421 21.000145 383.669223 193.428164 -9.440835 -93.770791 -367.467278 72.159319 -233.702099 37.007836 -94.958928 18.620873 -7.840979 28.142797 180.571181 21544 21288 
-34.930562 -116.218292 -40.282072 151.496525 94.180106 59.161229 -21.548400 -91.858535 46.660209 -154.062759 23.802740 -17.765518 10.311506 3.446859 -15.723802 103.330764 21545 21289 
-57.660060 13.619048 -32.511367 -179.376724 -107.017584 150.321922 60.767257 151.857506 -6.773681 263.419473 -68.325967 -88.125740 -45.025635 -44.341061 -49.167032 38.339644 21546 21290 
22.959142 63.919220 27.715877 53.317313 -75.249518 -54.101898 -17.578597 -20.981539 -75.856595 620.128329 -155.442756 -178.262052 -70.427312 -65.521964 -66.101834 -8.515817 21547 21291 
-13.451776 125.401879 -38.610404 -98.476116 -128.688894 16.616094 21.280943 115.928274 3.689464 149.908456 -87.168336 -100.413796 -2.217830 19.284752 -23.362699 40.279989 21548 21292 
-15.054251 48.934732 -4.576116 -29.673757 -31.207536 -14.896742 -7.278467 53.752137 52.613603 -188.653842 -1.589409 -95.829530 15.996867 39.383140 58.595901 119.483271 21549 21293 
-28.493179 48.647240 18.113342 -33.846061 -9.141159 -46.189167 -18.971400 69.880383 -1.466024 175.101507 -21.314344 -74.721463 -28.535620 -17.251138 -49.877717 18.064799 21550 21294 
-36.622982 10.600831 21.077390 -60.268281 10.822410 20.938550 -9.225695 42.677777 42.892131 -316.645318 40.454069 13.368210 51.385274 39.210927 31.327271 98.007435 21551 21295 
-20.993704 -39.848361 24.842091 -17.203340 63.915828 11.193489 10.806919 -32.712922 -24.183809 217.291118 -9.152562 -16.045926 -11.038293 -43.340976 -97.637355 -15.892196 21552 21296 
-6.492563 -5.441669 13.675203 -55.197980 0.256019 52.990189 19.312328 -19.101527 33.464122 570.806088 -31.948390 -334.449880 -54.292008 -113.678711 -380.011582 310.110360 21553 21297 
6.618435 -0.316385 21.637987 -4.206529 -12.451318 -9.246222 0.366097 -2.402064 326.742997 1.829336 47.658226 -142.079673 -25.253819 -130.201355 -425.092469 346.396757 21554 21298 
-17.904400 2.421151 17.565188 -46.993180 -35.021422 23.417607 -3.548510 60.063566 39.141213 134.367656 -37.938564 136.414437 -77.785833 -66.689775 53.700935 -181.210069 21555 21299 
1.131239 -17.725185 38.711243 -14.540233 1.454739 -32.922670 -25.188194 49.079061 -174.592800 -329.658423 -5.979924 108.148572 35.954163 147.136799 302.853696 -83.862083 21556 21300 
34.984568 22.643781 34.285614 -147.425169 15.017184 -138.862532 42.334009 137.022545 -25.124573 -271.215010 4.684546 177.823426 11.645311 55.145999 180.054904 -133.014604 21557 21301 
-55.447312 69.010599 -90.770748 -61.929798 -153.493692 -92.384064 88.530255 296.484760 -92.234672 -262.872327 1.677471 123.855503 22.422393 87.553084 221.257977 -101.659428 21558 21302 
-34.423105 7.881687 -67.210876 -24.701427 -87.261483 15.045729 39.628295 151.041180 -200.886290 -523.224674 -3.522381 363.671553 74.021655 186.949396 445.282413 -342.291673 21559 21303 
96.072058 -56.502908 70.585474 -80.040007 125.099727 -14.276515 -11.586617 -129.351212 -230.738518 -499.618793 30.724520 359.800701 47.804953 298.297429 330.727045 -336.997338 21560 21304 
19.615094 -44.946841 -6.066578 39.655842 10.894303 53.632533 -15.898621 -56.885731 35.973963 -404.606930 53.717441 19.378667 -35.457465 77.072057 164.115172 89.807095 21561 21305 
47.825394 -38.286629 28.365215 -20.489538 56.812571 15.279696 -11.984300 -77.522409 116.205544 -279.997412 27.151340 72.228822 -9.448104 -104.436270 145.261739 33.034341 21562 21306 
45.549010 -56.215835 26.002415 50.122079 55.619050 46.291236 -28.732938 -138.635018 60.430618 73.596568 51.923211 -26.007954 9.646347 -23.805661 -246.116788 100.333659 21563 21307 
28.633228 -149.193925 10.692290 163.360967 87.163317 200.706706 -103.617240 -237.745343 81.917340 86.453714 4.338784 -15.757460 -35.563650 -118.096891 -30.140021 26.848184 21564 21308 
9.219063 -58.009493 7.205276 35.343960 45.508968 58.027009 -54.726848 -42.567935 46.522335 -21.571391 42.022861 -36.411841 27.841941 -32.080006 -78.124582 51.800684 21565 21309 
-5.361090 73.527995 -10.744362 -86.873110 -70.390659 -81.324423 48.225997 132.939653 48.159405 195.534267 27.317628 -107.731244 -1.311520 -72.026497 -101.024013 11.081974 21566 21310 
38.688010 12.720599 28.232117 -0.240980 -7.764387 -55.184887 8.953754 -25.404227 23.855192 -182.400959 13.778611 -42.676781 101.610055 37.558844 28.388906 19.886133 21567 21311 
-2.489763 55.945351 -2.137633 -6.326892 -50.075143 -62.568276 20.402945 47.249411 -55.902344 532.034500 -86.397978 -145.722890 -27.985890 -41.072027 -148.859066 -26.094304 21568 21312 
14.292444 39.264825 -6.195393 -17.094593 -14.800046 -52.502065 12.775798 24.259029 -101.704211 780.103751 -135.580850 -123.867939 -117.538916 -118.467841 -96.121322 -86.822673 21569 21313 
-2.567158 11.499496 -39.906566 -14.778348 -27.111278 -19.257089 16.533984 75.586960 12.116934 53.423760 -22.085410 -29.735371 20.606439 -1.288994 -92.574681 59.537324 21570 21314 
14.386731 -1.253661 -43.254691 -65.166745 25.601417 -30.649405 38.871456 61.464899 -42.403529 362.948416 -77.038587 -61.562629 -4.857478 -78.848368 -48.747228 -49.490597 21571 21315 
-10.188941 -20.934586 -47.116480 -19.098460 47.744566 1.181848 33.392427 15.019625 -37.963600 347.857555 -63.152814 -84.675624 3.090133 -35.126249 -107.633729 -22.395672 21572 21316 
-32.279342 9.907475 -15.486637 3.049461 41.639325 -26.332938 34.823020 -15.320365 122.339370 -26.869334 48.213669 -124.023245 40.953432 34.536149 -361.591467 266.441427 21573 21317 
-21.323302 15.968120 13.734200 46.187899 53.742499 -24.623302 10.435717 -94.121832 221.172536 -29.770138 77.665126 -288.452344 8.574203 9.548080 -511.835128 513.097664 21574 21318 
-19.883113 37.847643 21.930195 40.362640 37.704420 -32.894092 -10.126560 -74.941133 16.966960 51.120050 -14.011752 -34.931586 -41.812155 -60.602109 91.382640 -8.112048 21575 21319 
7.182889 40.113691 51.748044 67.045206 -11.418718 -37.504435 -44.970223 -72.196453 -70.200478 -413.834714 25.185057 232.150307 65.534940 59.479352 312.780374 -211.094839 21576 21320 
40.244573 98.184684 90.932540 25.521590 -127.673219 -115.694281 -14.492493 2.976605 9.839535 -289.458035 31.084572 79.940568 28.722389 25.128170 149.091555 -34.348753 21577 21321 
54.325432 166.150511 79.196977 -166.305586 -114.859439 -266.545824 77.816964 170.220964 -46.196480 -228.432749 12.542008 137.252941 26.420053 23.719796 215.486621 -140.792190 21578 21322 
-13.465165 35.150456 -8.805407 -46.790487 -25.206428 -55.445405 17.989753 96.572683 -100.741674 -432.348716 22.478600 233.995182 77.442985 111.966446 290.074329 -202.867152 21579 21323 
-20.602158 -85.094425 -19.777877 132.808251 20.088469 146.257977 -73.645874 -100.034363 -170.885374 -126.693514 -13.951490 407.242599 81.956251 123.222238 199.724672 -500.615381 21580 21324 
-8.169240 -25.329440 -8.881943 37.073165 5.256410 40.831898 -23.678658 -17.102193 25.882446 -47.963163 17.917958 32.107951 17.590313 -3.975208 47.222701 -88.782997 21581 21325 
-16.821611 -48.853273 -16.858984 71.742638 11.817245 86.434539 -40.709124 -46.751430 25.245556 232.638408 -28.629334 -286.685314 -91.262311 -121.009852 64.776682 204.926165 21582 21326 
-0.505631 -43.659306 -3.272358 67.944728 17.726080 79.658805 -35.504298 -82.388021 -16.780499 180.318740 8.967164 4.520705 -27.897163 -30.815640 -122.488641 4.175333 21583 21327 
26.652504 -46.053608 20.156339 100.124816 25.732636 89.445607 -57.487195 -158.571099 26.967357 78.774108 46.061729 -64.089484 -65.770998 -82.808330 -28.739691 89.605310 21584 21328 
11.503136 -12.926249 -0.588177 85.561965 -31.238538 41.883056 -54.205504 -39.989688 -6.866182 117.989964 32.114721 -4.826006 -54.501159 -46.372222 -57.544760 20.005645 21585 21329 
-30.827789 17.971655 -20.159302 2.244830 -23.827784 -14.341296 -19.778311 88.717996 51.181510 -119.528041 15.393977 -3.876715 -15.088353 -5.416738 -10.787875 88.122235 21586 21330 
-28.769715 -43.515610 -2.324061 26.654754 71.851930 49.413850 -32.840152 -40.470995 23.480057 -98.300436 -10.798681 -6.680233 -13.186014 9.224357 31.569467 64.691482 21587 21331 
-47.924101 -34.058676 -18.198556 -15.899736 56.628745 27.856165 24.888970 6.707190 39.800288 -96.599337 13.112231 2.809413 -0.669929 18.932280 -29.426731 52.041786 21588 21332 
-58.722093 -45.493693 -19.372275 -0.587940 28.846091 68.632274 37.243053 -10.545417 77.568445 -384.989656 53.764265 13.903323 23.582172 37.427578 62.288908 116.454965 21589 21333 
-56.514977 -38.402676 -23.698973 -41.048056 14.724516 51.271041 56.691828 36.977297 75.455626 -443.689305 29.851573 53.603702 71.096052 88.692512 24.675358 100.314482 21590 21334 
-29.050498 -30.442073 -13.871883 -37.722167 5.104958 33.325911 32.193619 40.462133 -45.187327 325.296397 -80.714029 -113.838360 -25.659540 -26.342923 -29.801490 -3.752728 21591 21335 
14.149547 -1.580891 -0.169116 -21.061938 -18.994389 -2.674341 7.568811 22.762317 -3.462139 106.858734 -8.222136 -31.343040 11.126656 12.878374 -78.728320 -9.108130 21592 21336 
19.102749 36.472078 -8.778405 -11.725311 -31.514627 -1.362751 4.428552 -6.622286 129.132606 -418.117452 48.019621 -150.181248 68.255833 71.723925 -94.696677 345.863393 21593 21337 
25.312080 52.003156 -7.070083 -20.710974 -29.087148 -2.302543 -2.696159 -15.448329 193.973834 32.181240 15.408450 -467.749995 -38.727440 -89.354124 -192.039054 546.307089 21594 21338 
27.340026 30.664903 -33.039450 -67.495497 -30.992363 -16.634472 11.650488 78.506363 41.335195 116.770199 8.915594 -59.610994 -27.029094 -45.386134 -21.638697 -13.356069 21595 21339 
36.468845 32.290176 -34.991849 -68.788545 -37.408533 -20.833194 -3.937885 97.200985 -180.248801 405.785295 -53.404002 229.652543 -32.541714 20.286347 22.780239 -412.309907 21596 21340 
88.565316 97.237589 2.843403 -190.661100 -34.301491 -198.509037 56.298584 178.526736 -20.245983 -51.836295 17.707176 77.781187 9.699661 21.649776 50.618249 -105.373771 21597 21341 
-170.393252 20.972182 -269.689360 15.634517 63.143467 -73.138276 46.268867 367.201853 -85.561838 105.439350 -11.938258 149.606559 -1.448981 27.052307 44.664113 -227.813252 21598 21342 
-126.755531 5.660296 -140.937203 55.357702 -31.539936 -4.897824 22.225652 220.886844 -139.599250 3.481265 -17.297248 192.050041 18.882970 68.199777 143.336468 -269.054023 21599 21343 
162.455187 19.190996 207.803715 -83.364291 -80.993059 -71.567314 10.303268 -163.828502 -247.610778 314.984285 -106.511784 287.266991 -63.169597 24.792274 348.472884 -558.224276 21600 21344 
-15.264796 -67.832963 0.698389 137.858818 30.730954 116.371246 -62.174395 -140.387253 -93.259386 644.355885 -101.405239 9.963761 -104.662606 -96.458143 7.229914 -265.764187 21601 21345 
66.393033 -10.770055 96.731950 3.178395 -30.433690 2.825978 -12.246144 -115.679467 104.747250 -140.551487 43.647943 -100.673084 65.283717 7.741081 -180.227824 200.032404 21602 21346 
35.417289 -37.417739 57.744653 57.909289 14.346590 53.182542 -30.353323 -150.829302 -94.725368 478.882251 -57.247152 -27.233153 -28.142664 -45.771477 -125.908434 -99.854004 21603 21347 
24.157199 -52.942361 49.632378 72.944548 38.344158 57.344804 -29.456118 -160.024608 -1.328056 159.020627 24.118994 -133.020699 25.412335 -33.163489 -133.476714 92.437003 21604 21348 
26.721879 -37.074903 63.225770 14.544652 16.788481 8.554955 -9.966663 -82.794171 0.315905 -117.780115 52.608043 -22.610485 61.889546 29.807106 -43.680318 39.450319 21605 21349 
-36.925033 -28.349461 -20.119723 35.251078 9.662404 32.110074 -10.084671 18.455332 22.651475 50.845219 61.566239 -55.403573 -11.766995 -52.344385 -52.341904 36.793924 21606 21350 
41.297766 31.369479 60.437869 -58.467100 -6.277601 -45.329045 -1.625395 -21.405974 12.797073 106.817879 56.913929 -23.896946 -18.378741 -54.038382 -103.264781 23.049969 21607 21351 
-2.667333 55.726948 24.487255 -25.314722 -25.721557 -7.494672 -43.762376 24.746456 -10.770794 219.583291 -38.263086 -29.580113 -12.400221 -46.113421 -86.183283 3.727625 21608 21352 
60.547940 78.571516 78.901287 -78.091637 -49.617457 -49.100639 -30.703125 -10.507884 53.953269 -220.760446 6.131510 51.811072 33.548296 20.382740 -45.526963 100.460523 21609 21353 
19.775824 26.672662 8.136944 -26.040002 -19.888595 16.228044 -16.559737 -8.325141 83.104723 -459.872255 32.183540 89.301047 45.846660 60.193372 24.646600 124.596313 21610 21354 
24.573831 -5.045057 2.691143 -8.627332 -31.838672 8.436317 26.004419 -16.194649 51.945140 -182.387463 -28.512862 -41.440249 42.600457 31.761665 -4.040279 130.073590 21611 21355 
-5.138296 -42.895595 -22.286886 64.374421 6.337379 10.084624 22.442137 -32.917783 -18.400700 235.984080 -88.227527 -51.246408 -39.440320 -4.107596 -58.121949 23.560419 21612 21356 
-31.432118 -44.722577 -26.422301 77.274997 33.732490 14.347221 2.513147 -25.290859 131.458687 -36.595225 41.084908 -246.669875 30.717488 49.112284 -391.234959 422.126693 21613 21357 
-26.049037 -39.516586 -29.080900 39.706217 62.287095 32.962315 9.265013 -49.574116 373.934136 -129.904314 65.981604 -289.355337 -82.550564 -166.556371 -210.602571 439.053418 21614 21358 
-24.826118 -22.788807 -38.575267 16.974468 53.650983 38.768479 23.256134 -46.459872 105.021326 82.803670 -20.494000 20.612713 -152.821308 -137.997563 176.280897 -73.405735 21615 21359 
-3.676858 14.723990 -13.445208 -2.418617 32.236279 -1.309907 18.378363 -44.488043 -143.307107 -411.249251 51.475449 187.796056 74.999369 196.552721 115.518886 -71.786124 21616 21360 
11.699647 53.925291 -24.022736 -118.535419 55.830048 -111.718930 72.413104 60.408995 6.836149 -441.473261 34.876450 163.393664 4.805776 52.280357 260.595234 -81.314370 21617 21361 
-314.252791 -31.092843 120.690811 -23.403388 2.933717 -80.088361 4.950940 320.261915 -78.625205 -267.789573 25.967819 137.959472 29.218800 96.345705 143.362426 -86.439444 21618 21362 
-189.225349 4.063555 12.948077 -5.339455 -80.354636 -31.269493 14.651628 274.525673 -107.208104 -393.397915 25.125219 211.162414 49.490918 109.824749 264.961403 -159.958684 21619 21363 
232.550652 59.649985 -88.905631 -82.135733 -24.450632 -35.635020 66.449552 -127.523175 -309.020679 139.329640 -66.193639 322.467012 -67.529207 -4.742487 510.933959 -525.244600 21620 21364 
-18.869825 -78.905658 21.150432 131.227683 30.124306 135.740176 -68.294041 -152.173072 -218.640061 451.368737 -42.138446 54.292401 -83.041780 -62.354194 149.137600 -248.624258 21621 21365 
100.244392 9.958698 -39.425194 -8.121252 -8.013553 18.837598 12.729546 -86.210235 38.412512 71.823590 73.655405 -80.474582 -17.599718 -12.800357 -202.891593 129.874743 21622 21366 
55.226831 -42.297199 -0.282559 71.515254 29.841646 83.794537 -35.659045 -162.139464 19.537202 -341.542399 92.728914 71.295183 60.460404 86.920254 -81.415762 92.016203 21623 21367 
39.800317 -109.328796 -17.479861 194.757141 44.566558 213.667284 -105.347068 -260.635574 104.459542 -359.292280 38.766315 -38.025162 75.049528 54.885992 -29.875035 154.031099 21624 21368 
54.849230 -30.791768 -41.476702 66.285774 4.802377 74.861786 -29.181656 -99.349041 80.759431 -442.615353 82.479072 1.379343 91.053303 99.554436 -16.636892 104.026660 21625 21369 
-21.566565 35.601863 21.305863 -68.440295 -28.775864 -84.836405 34.872483 111.838920 144.057370 -516.373372 83.437203 36.625513 56.512196 49.724407 28.354418 117.662265 21626 21370 
58.472002 7.615942 4.136544 -45.803183 -13.476840 -44.544172 17.965003 15.634705 154.591883 -286.452191 -28.217816 -35.183223 20.645336 29.631864 -16.744564 161.728711 21627 21371 
-20.920137 -23.052572 2.616474 -29.512022 -10.813261 -19.049123 12.657707 88.072935 119.106488 -94.179480 -87.659228 -67.861189 -5.621960 -4.729576 33.105527 107.839417 21628 21372 
30.571335 3.053218 -27.815243 -38.625184 -7.093977 -29.151056 28.693515 40.367392 5.359440 396.939694 -123.081277 -148.888137 -16.062473 -54.499428 -73.586603 13.818784 21629 21373 
-32.378330 -20.682412 -5.556520 27.385680 21.541479 5.254152 -5.807421 10.243373 -48.546139 728.162171 -105.399224 -191.555672 -84.998968 -129.065951 -96.202564 -72.393654 21630 21374 
13.150510 48.426168 1.498528 -44.569161 9.853601 -53.553117 3.944361 21.249110 -30.511491 747.319636 -78.363015 -223.935152 -119.569801 -149.211793 -130.682068 -15.046315 21631 21375 
7.751905 94.983046 9.362458 -13.154819 -36.987026 -42.360014 -37.364656 17.769106 34.262114 27.826119 -0.710839 -78.282552 16.970647 -12.630955 -56.490045 69.055512 21632 21376 
3.339626 66.221121 -0.962449 -38.784373 -45.816972 -56.959440 -2.728923 75.691409 136.034728 -425.408238 51.578933 -111.322939 67.947781 17.843466 -20.233161 283.559431 21633 21377 
6.480966 -5.823202 -7.670405 -57.229218 2.327198 -8.243128 13.053268 57.104521 162.085534 110.338545 -5.925279 -396.773074 -33.273343 -124.136133 -139.581001 427.264750 21634 21378 
-12.329845 25.497066 -4.589535 -69.077130 -5.181005 -27.996246 15.609633 78.067064 -11.657850 259.335158 -16.401757 -55.452508 12.046944 -53.326329 -92.162394 -42.381266 21635 21379 
-3.524419 42.087530 2.736047 -33.807151 -14.794024 -26.728357 12.958587 21.071787 -232.491987 364.981412 -52.110558 240.819765 37.809814 43.910771 -5.884689 -397.034528 21636 21380 
-11.864613 97.163070 41.223475 -87.735621 2.761462 -121.237270 48.148461 31.541036 -105.590632 252.224178 -32.983953 56.833571 9.893574 -13.024767 1.374977 -168.726947 21637 21381 
-91.071761 185.766857 -86.128574 -114.140575 -183.720563 -182.779795 143.181465 328.892945 -139.940811 228.186037 -27.530247 140.782858 22.631961 20.449804 -3.748918 -240.830683 21638 21382 
-73.336747 65.980282 -74.979464 -63.004858 -103.427852 -61.203375 71.613419 238.358594 -154.480867 109.207646 -25.539652 156.936012 33.005736 35.629658 105.388444 -260.146978 21639 21383 
70.333736 -83.397348 59.098495 -1.250917 157.594860 54.683460 -53.560298 -203.501989 -158.110140 29.142327 -58.805386 241.851825 33.159205 26.292142 346.908829 -460.438803 21640 21384 
-5.608255 -70.857091 -3.224867 93.456427 38.077615 113.747586 -43.480652 -122.110764 -48.971924 378.785517 -98.382927 -16.590963 -47.929373 -77.393172 116.679942 -206.197101 21641 21385 
28.962650 -59.373691 25.445825 25.820093 79.109326 55.941740 -37.633130 -118.272814 21.612620 499.030088 -49.419797 -220.753448 -45.682274 -67.480540 -256.898295 119.591647 21642 21386 
23.295043 -86.196585 24.819643 90.419274 76.806007 110.721225 -54.837931 -185.026677 10.331975 -158.173845 36.925321 10.212777 66.277038 78.553012 -24.024578 -20.101700 21643 21387 
-0.170537 -196.891530 -26.449170 258.883721 103.569548 329.085209 -138.392696 -329.634544 62.844055 -350.888628 81.697512 -26.542589 63.580908 64.749950 -30.098556 134.657347 21644 21388 
-6.969058 -128.616370 -32.970622 68.024552 99.662649 178.434481 -60.980125 -116.585507 -58.003151 21.922861 33.716039 92.551379 -20.635264 3.499672 -70.795187 -2.256348 21645 21389 
11.429554 44.812805 5.814979 -172.211625 3.434539 -147.666923 74.601126 179.785545 43.449445 -545.084312 93.085838 173.176203 16.582817 51.733145 21.141741 145.915123 21646 21390 
31.592021 -17.687150 14.952355 -19.581817 36.418086 -29.814380 -12.547555 -3.331561 21.883504 -481.070654 83.534000 165.899089 26.325313 64.661376 -5.485939 124.253312 21647 21391 
-11.932698 23.036798 -27.222270 -56.734544 -14.066847 -56.939282 18.942926 124.915918 -11.323419 -132.556142 26.597780 86.711022 10.049392 15.652611 -29.869814 34.738570 21648 21392 
17.547179 14.065860 -12.849056 -59.776042 17.384145 -51.103336 8.466332 66.264919 30.986645 -171.928617 40.342108 27.851606 29.911819 16.064647 -44.476981 71.248772 21649 21393 
-2.326962 52.544756 -11.954888 -9.088699 -32.656190 -31.332481 -0.787236 35.601699 -24.900782 256.529337 5.417863 -37.061262 -48.020803 -54.720691 -57.245131 -39.998530 21650 21394 
5.976078 79.389312 35.156627 -2.203633 -38.552129 -75.810047 -6.285473 2.329264 -79.451073 697.698567 -31.018618 -95.792525 -146.986633 -129.922864 -139.645356 -74.881496 21651 21395 
4.981209 23.524657 42.682516 29.924752 -42.277384 -31.443908 -21.481541 -5.910301 -45.643869 464.241700 -2.052884 -18.947221 -126.523584 -106.785276 -95.822744 -68.466122 21652 21396 
1.782235 24.929949 45.873685 -17.372357 -63.757711 -55.234118 9.793384 53.984934 41.023225 577.446340 -32.534307 -270.174892 -134.405439 -141.762209 -292.220956 252.628239 21653 21397 
-27.291224 6.702329 34.031721 39.092107 -56.586735 -4.111215 -0.370821 8.533840 281.916155 186.291761 -43.972424 -269.616796 -165.035400 -223.344513 -70.422320 304.183538 21654 21398 
-39.692506 14.211378 19.423309 21.809763 -52.818365 -20.627463 26.587181 31.106701 105.078784 37.284001 -31.009495 -42.640863 -46.636676 -66.718870 87.518358 -42.875240 21655 21399 
-25.887526 -17.143175 27.515313 52.789064 -34.589135 1.437241 24.084530 -28.206311 -185.035609 66.806537 -11.968766 32.405207 89.773826 147.044354 -25.321220 -113.704329 21656 21400 
-7.432348 11.899291 45.879996 -21.080880 -5.748664 -92.231245 53.860623 14.853227 28.777426 -585.127414 44.249749 133.025168 92.572206 109.515558 229.213089 -52.225782 21657 21401 
-88.644810 100.283885 -55.287926 -49.707604 -175.647655 -138.039465 129.014048 278.029526 -75.718153 -135.052626 4.362741 52.779850 68.007561 99.682712 62.800042 -76.862127 21658 21402 
-64.920240 75.968675 -50.868350 -48.553972 -128.381141 -74.501725 76.330312 214.926443 -100.167362 -465.743725 16.048494 193.413627 105.681562 148.902902 269.697513 -167.833011 21659 21403 
71.943590 -57.034441 71.418294 3.410045 143.411196 34.102757 -69.046324 -198.205116 -160.375692 -449.661276 13.984827 461.964684 130.941182 176.999345 288.498563 -462.351633 21660 21404 
4.214712 -53.107177 1.570590 102.524098 23.698982 110.235027 -56.789265 -132.346967 -11.067701 -377.383913 18.571668 140.007140 62.740053 59.249095 173.070301 -65.186642 21661 21405 
33.852394 -38.290557 27.608292 21.613402 70.826708 44.425496 -45.201148 -114.834587 130.048692 -422.347265 36.060698 -150.280021 27.843750 8.388847 80.568182 289.717116 21662 21406 
31.156223 -61.181043 20.487148 80.325161 64.023358 99.250515 -61.967070 -172.094294 83.033512 -326.481065 93.984044 8.149896 62.413946 89.043773 -127.193991 117.049885 21663 21407 
33.289625 -110.024841 27.216048 184.885638 52.494137 214.181317 -130.102278 -271.939646 124.935964 -156.947465 55.824553 -130.401665 -52.057220 -38.746298 13.063430 184.328702 21664 21408 
25.691936 -56.150239 24.395046 80.770422 -8.818403 114.924323 -70.785856 -110.027230 -2.654611 322.631109 -64.334774 -135.247736 -45.412909 -23.342184 -119.837120 68.198226 21665 21409 
-11.169335 30.911868 -14.571713 -94.070263 -54.434310 -67.256389 74.778151 135.811991 60.026423 -124.371129 -23.202799 -80.747899 36.144818 26.302637 4.655673 101.192276 21666 21410 
14.429051 -12.395929 3.065058 -44.435446 41.718085 -14.039637 20.700468 -9.041649 -21.085733 182.958597 -20.985487 -124.573040 -0.920233 -16.755654 -45.555077 46.916626 21667 21411 
-9.832611 32.053887 -26.980896 -23.431837 -22.492063 -45.342062 29.847897 66.177686 -0.410567 34.120752 9.158758 -65.804410 24.997339 6.948900 -30.051181 21.040408 21668 21412 
25.357120 21.114010 -18.937119 -0.824345 44.431555 -56.067531 -20.448252 5.374562 18.574151 -11.385849 1.403300 -105.851412 20.787800 -10.912668 18.656958 68.727719 21669 21413 
35.488519 55.031461 -51.036160 -13.554767 -2.486896 -33.679628 -29.730398 39.967868 -29.630027 385.158714 -70.941106 -84.305262 -26.563732 -60.549292 -72.711145 -40.458151 21670 21414 
23.162807 42.591350 -65.308230 -67.987903 -4.857234 -6.926342 13.802759 65.522793 -4.489476 223.365210 -44.602630 -58.178706 -34.459460 -56.540667 -19.968464 -5.125806 21671 21415 
-19.278260 -22.072266 -64.113269 -71.986923 30.327068 57.116680 28.463320 61.543650 -37.846506 412.531488 -42.829250 -3.603377 -80.847292 -77.742886 -106.637418 -63.024758 21672 21416 
-30.642958 -17.887025 -37.757560 -113.799924 49.922809 11.439453 41.735632 96.989573 55.369670 25.197136 4.087664 -103.321815 -71.258008 -72.828579 3.844843 158.909089 21673 21417 
-24.303131 -11.781044 0.250645 -33.508766 56.588048 -3.041975 -4.561197 20.357420 271.032587 -383.482206 88.180487 -352.963583 -37.432795 -65.047408 -77.571484 557.284402 21674 21418 
-2.418487 9.504479 22.540615 -20.649151 22.452273 -35.396449 -2.636554 6.603274 100.400907 127.284616 6.144297 -94.389326 -43.335592 -56.419005 -131.875736 92.189839 21675 21419 
26.938364 -23.284396 28.102473 -40.986284 26.377543 -15.123574 14.406726 -16.430853 -135.962699 70.042182 -26.756702 270.874413 31.128377 58.748920 59.198154 -327.272644 21676 21420 
29.910471 -21.955634 19.147620 -83.873286 6.296706 -52.366525 61.304093 41.536556 -16.229430 -41.204673 -3.278245 83.386511 8.965199 17.797945 31.075142 -80.512448 21677 21421 
58.359184 99.261330 34.925157 -252.968552 -29.685356 -300.673583 175.066453 215.715367 -74.877012 62.227866 -17.872938 151.456770 11.702133 25.996759 30.429652 -189.063229 21678 21422 
-14.412943 79.761820 4.241295 -57.738408 -60.041299 -141.598968 67.118539 122.669964 -132.029529 -206.150261 -7.922434 251.336171 56.610826 91.022772 208.313278 -261.180821 21679 21423 
-61.779734 -60.756238 -7.775638 226.156023 2.538753 179.511388 -117.911507 -159.983048 -219.120328 -175.079156 -9.942984 540.545261 75.485050 111.493748 300.967784 -624.349375 21680 21424 
-23.017802 -11.740866 7.857517 101.137620 -4.295490 50.480679 -44.985190 -75.436469 -2.787557 -411.742622 28.150362 230.799336 62.075519 25.397738 244.106213 -175.998989 21681 21425 
-35.759820 -27.105223 -3.924182 130.396241 -7.313991 95.073077 -64.484901 -86.881201 140.495318 -423.358445 49.360863 -165.462234 72.459354 0.064716 -29.343080 355.783509 21682 21426 
-9.412151 -44.663112 11.423653 134.059850 17.178801 106.646221 -67.238518 -147.994744 36.079539 -179.686251 25.604609 79.252607 114.040965 65.016033 -169.854981 29.547478 21683 21427 
-6.036709 -139.655190 -7.662839 329.870813 33.704322 314.047623 -172.339771 -351.928249 100.568379 -124.236790 -23.264088 -185.983657 50.040298 0.206187 -44.251601 226.921271 21684 21428 
-27.963361 -40.458609 -42.571483 238.941681 -60.293557 177.557577 -104.854204 -140.358043 28.323810 166.774350 -46.701516 -108.337178 -18.696119 3.028291 -106.565092 82.173454 21685 21429 
-5.123486 110.711867 -23.918702 -88.151953 -101.332356 -180.905857 76.692142 212.028345 47.340815 188.835925 -33.018906 -161.256499 -61.943788 -13.809350 -76.933104 110.784907 21686 21430 
-11.090245 -48.935766 -14.753927 38.175521 4.663681 2.434947 -7.663279 37.169068 6.317125 92.480805 27.563110 -124.263228 -14.833662 1.452190 -59.540481 70.824141 21687 21431 
-17.023015 -17.741650 -2.739740 -40.978027 -16.506094 -84.399925 55.605449 123.783001 -8.811176 4.904620 97.472458 34.279673 -28.095918 -16.633983 -82.241140 -0.874535 21688 21432 
-9.363137 -7.696691 28.388372 -18.414912 -21.198513 -44.094494 22.310826 50.068549 -53.133397 297.241624 37.475707 -6.802127 -115.284312 -82.842290 -82.362703 5.707498 21689 21433 
-9.712635 46.623371 48.781747 -71.268376 -22.535414 -61.790609 21.956945 47.944972 -116.163946 710.889136 -28.340840 20.417288 -197.495247 -119.600396 -150.636902 -119.069091 21690 21434 
-13.178230 76.059997 24.723950 -101.570529 -1.235457 -58.850251 22.232844 51.817677 -56.807114 436.376111 -15.776241 -16.901209 -155.790718 -81.102837 -76.924858 -33.073135 21691 21435 
8.720238 38.018768 13.044442 -69.970176 10.154842 -20.094349 2.155059 17.971175 -89.933920 556.310804 -71.658980 -70.842738 -48.323072 -61.425693 -106.303029 -107.823372 21692 21436 
29.449932 44.395002 21.427136 -86.726681 -7.205689 -51.937911 18.300059 32.298153 1.053405 301.949645 -65.294035 -255.699417 -41.444048 -61.916284 -57.084732 178.435465 21693 21437 
22.820840 25.234548 15.569212 -40.296035 17.868608 -6.533214 -5.020969 -29.642990 264.253223 113.668847 -4.083857 -90.072672 -78.122586 -143.350093 -269.716751 207.423889 21694 21438 
15.142994 59.080763 15.031188 -60.119728 27.830490 -39.509945 2.294942 -19.750704 93.907037 475.273989 -58.370494 -46.632084 -72.784433 -128.372896 -214.212089 -48.809029 21695 21439 
13.172258 68.753448 4.140152 -23.644929 35.901742 3.121790 -9.723858 -91.720603 -131.095751 -115.862851 -26.625710 -36.102815 42.784885 88.821210 201.228111 -23.147078 21696 21440 
14.968485 54.101186 5.352212 -80.835374 39.141610 -57.230814 42.743334 -18.240639 25.917859 -360.542046 25.700672 122.528452 63.959620 62.457459 111.074981 -51.096997 21697 21441 
5.709388 60.849804 -27.341868 -411.390116 -54.561768 73.721865 131.851101 221.161594 -54.659606 -175.000866 -4.425632 22.905002 45.539097 62.576413 134.541446 -31.475854 21698 21442 
-9.441145 23.029989 -49.466754 -231.699082 -62.497590 0.452743 102.938127 226.683710 -103.319895 -411.790532 18.342648 177.165721 97.906088 124.399722 256.856138 -159.559890 21699 21443 
0.588352 -84.123844 -23.351720 204.004450 57.110855 -80.214069 -32.298341 -41.715685 -165.216673 -434.744023 79.018313 436.227722 165.889760 207.016022 177.252686 -465.443807 21700 21444 
-2.514147 -62.724943 -28.114622 26.664147 12.729129 90.915605 -14.668591 -22.286578 -12.366815 -525.810844 94.627862 148.259931 90.824743 104.973327 183.989591 -84.497796 21701 21445 
-0.361185 -56.796577 -18.864352 105.358918 24.362579 -16.384623 -17.437048 -19.877713 96.694835 -321.095554 38.035629 -173.548094 -9.856321 -25.690763 125.508839 269.951430 21702 21446 
19.098558 -89.047500 0.953534 120.359725 49.177103 83.393581 -42.610515 -141.324485 53.826392 -263.368506 67.929808 1.373208 19.935305 54.186964 -41.633129 107.749958 21703 21447 
78.189330 -171.440323 121.387821 83.847406 240.511759 105.350709 -64.620633 -393.226070 152.589472 -478.497697 71.053202 1.623649 -13.220254 -3.530760 54.589472 215.392917 21704 21448 
-55.845664 -118.984744 26.048293 149.501554 111.283239 128.565206 -34.988283 -205.579600 6.369482 161.825713 -16.727172 -68.093070 -26.272528 -51.747987 -62.403857 57.049417 21705 21449 
-104.710262 30.974913 -102.797411 43.155556 -138.422439 56.026331 45.560452 170.212861 12.350067 189.175313 -45.987078 -68.419960 11.248537 -50.059220 -68.211982 19.904323 21706 21450 
35.104815 -8.256126 9.177191 -22.258171 15.653509 -107.357860 13.390600 64.546042 -4.570336 42.122342 -54.866357 -68.830728 35.666129 -1.629947 -6.732864 58.841761 21707 21451 
-45.694250 11.609664 -37.204259 21.532071 -92.171411 1.637512 1.704509 138.586163 13.264367 -6.947048 -41.896789 -6.934645 45.720908 15.156140 -36.057217 17.694282 21708 21452 
-17.011471 35.887851 -2.608681 33.684080 -47.201529 -63.641330 -7.549006 68.440087 -40.237250 415.655668 -113.426993 -115.311621 -27.285016 -57.960875 -36.623266 -24.810648 21709 21453 
-2.680608 61.863884 -32.723861 -30.147687 -67.562426 -36.062885 -1.926750 109.240334 -80.385187 663.352416 -122.151661 -110.852871 -47.937100 -70.538721 -114.242624 -117.244251 21710 21454 
36.953128 90.497097 -72.232994 -40.795200 -106.596425 -78.685794 -5.779662 176.639849 33.569379 -70.221465 -37.035228 -81.712363 33.811008 19.923307 40.938723 60.726639 21711 21455 
74.897530 62.758596 -53.563454 -70.683909 -65.132289 -76.438625 -7.760957 135.923108 -28.912902 324.377983 -83.895033 -149.314704 -21.902602 -25.877659 -28.284293 13.809211 21712 21456 
36.055964 28.328529 -65.574660 -5.574290 -80.435300 -37.077488 -0.116063 124.393308 -31.208953 482.989829 -100.795179 -289.185041 -92.147583 -117.917438 -30.236201 178.500566 21713 21457 
50.864262 8.230201 -13.633386 -21.452421 -11.776909 -42.542391 -8.481083 38.791727 167.965298 141.491583 17.433930 -37.999190 -59.630978 -146.663974 -243.942014 161.345344 21714 21458 
13.214620 -1.178213 -13.180075 -14.583161 -10.448906 6.112625 0.924055 19.139055 97.332327 72.121322 42.615421 109.348080 -30.418467 -62.630126 -185.055215 -43.313342 21715 21459 
18.751319 -10.570184 26.622432 9.058983 27.672989 -22.019532 -11.180871 -38.335137 -120.277210 -160.984922 14.362973 13.282356 14.839898 81.612428 171.062157 -13.897681 21716 21460 
17.334168 27.717803 52.853196 34.478532 -18.440878 -68.473659 -19.510678 -25.958484 29.067155 -487.386365 84.810915 207.106882 58.824087 78.568105 87.115087 -58.105867 21717 21461 
63.365310 119.473723 81.356123 -151.389905 -28.001471 -281.563634 93.058239 103.701616 -41.418149 -264.582766 42.066729 80.168776 30.166777 68.883836 111.526901 -26.812105 21718 21462 
-11.908841 44.942467 35.843269 -83.643820 -8.773085 -84.665754 66.673749 41.532016 -97.901720 -378.418166 35.257015 220.370913 64.401451 111.094652 209.523761 -164.327906 21719 21463 
-67.471397 -83.384033 19.213593 164.726245 34.300220 187.145300 -62.004034 -192.525895 -105.453491 -651.763217 58.916709 550.742877 135.629812 193.611901 273.701463 -455.386055 21720 21464 
-23.939855 -32.531370 36.164638 51.430235 34.841826 72.872843 -16.053217 -122.785101 37.073640 -432.891993 74.449705 173.942680 6.682460 20.968581 227.894753 -108.119827 21721 21465 
-44.036918 -49.169332 17.020606 92.311195 25.371861 114.874366 -32.824866 -123.546912 112.797175 -174.906892 82.975401 -190.310809 -50.831717 -61.460896 8.031974 273.705764 21722 21466 
-14.661673 -51.154858 33.929662 83.050568 49.324439 110.260412 -34.405176 -176.343374 -19.291179 -16.604814 -0.603154 -28.872921 44.253424 75.897236 -130.409158 75.630567 21723 21467 
-57.988583 -133.833154 23.424582 252.033559 79.357738 312.869942 -122.019979 -353.844105 65.991794 -136.123444 -12.118428 -119.311857 16.225012 16.491904 -2.199894 171.044912 21724 21468 
-75.690269 -72.838905 5.460184 121.632633 56.840818 214.147785 -83.206563 -166.345682 -2.518695 183.847729 -26.343745 -126.178243 -36.658125 -11.286960 -71.985030 91.123068 21725 21469 
-2.648634 69.581031 -5.834753 -161.971330 -5.165835 -106.910315 77.432969 135.516867 51.112795 -55.133734 -10.535345 -12.432603 -9.434457 3.346646 -46.418666 79.495364 21726 21470 
12.950111 16.349981 2.938329 -31.518160 10.921147 -7.865912 25.729587 -29.505084 33.402174 37.865173 -15.833945 -31.570365 -29.783746 -27.194285 -45.341663 78.456659 21727 21471 
15.708630 42.805394 -9.011820 -105.153159 11.385835 -71.805975 46.619639 69.451456 11.493545 226.362488 -12.929659 -9.190899 -59.177212 -50.789275 -99.863731 -5.905257 21728 21472 
17.932083 -10.968936 -25.436005 -67.618468 16.400369 -8.601807 44.290160 34.002605 26.475538 -38.329280 37.298548 -66.569260 -8.949986 -8.292968 -16.916134 75.283542 21729 21473 
10.593549 -20.160431 -2.683076 -64.745614 -15.802773 -10.699644 48.496825 55.001164 -55.216816 205.879444 17.387518 -5.757297 -1.354377 -22.489671 -109.913131 -28.535670 21730 21474 
-8.797082 -33.104444 19.189422 -42.912107 21.813925 -26.067870 32.681929 37.196228 0.765373 -126.677598 61.755467 13.531439 51.018087 12.728232 -56.821699 43.700699 21731 21475 
-22.649362 -25.625563 30.655667 23.136826 33.261496 -16.250359 0.393034 -22.921739 -20.814002 -59.917008 46.611036 26.517961 67.031364 44.862940 -87.581183 -16.711107 21732 21476 
-10.155671 29.963327 34.393362 51.060820 -34.732837 -80.494774 -15.434102 25.399874 -14.526186 421.046848 13.655959 -103.304062 12.703738 -24.463109 -356.087424 50.974236 21733 21477 
8.470222 44.676754 24.465124 80.539174 -63.877755 -67.210522 -47.872726 20.809730 167.613750 -80.101780 66.515682 -327.626739 0.550103 -83.706153 -105.629892 362.385030 21734 21478 
20.465771 54.860462 8.492127 -13.500521 -37.219555 -75.796961 -29.373924 72.072601 79.667385 -209.655452 30.346616 -80.731165 -12.732380 -45.731710 187.081008 51.755697 21735 21479 
15.878763 8.594742 -16.028842 -39.950723 33.314329 -17.811966 -27.663402 43.667099 -145.233718 402.373920 -30.054126 169.850789 -22.887928 18.238507 -52.270598 -340.016846 21736 21480 
36.490157 40.306804 -12.364881 -71.537119 -12.777356 -66.638786 8.460036 78.061146 -99.832874 427.950359 -67.803699 -14.488081 -72.408379 -64.623690 72.955342 -181.748978 21737 21481 
66.864953 135.710347 6.384734 -203.401877 -76.016167 -260.056381 114.562843 215.951548 -92.149370 272.005817 -38.160519 77.585045 -31.167092 -8.255670 27.181263 -207.039475 21738 21482 
7.840623 64.952013 -21.305778 -109.717160 -38.474992 -112.311156 65.769533 143.246917 -163.643775 152.651989 -51.597374 156.913610 -5.435982 38.279198 160.057754 -287.225419 21739 21483 
-32.423569 -75.830989 -26.202190 126.193990 8.524745 172.947117 -65.696518 -107.512586 -274.416471 424.582466 -110.263408 396.185685 -32.833328 62.536264 166.612502 -632.403710 21740 21484 
-2.416432 -28.621517 -9.863209 39.374842 9.800249 60.073155 -18.963227 -49.383862 -41.503407 409.735436 -87.382792 66.058017 -95.160235 -61.468891 59.447893 -249.726020 21741 21485 
-16.685631 -42.072455 -18.045600 62.926252 8.830883 96.534182 -33.164652 -58.322979 108.501390 242.508325 -64.057676 -326.422300 -104.440754 -145.513500 31.794911 257.629605 21742 21486 
-3.639509 -40.401966 -6.956895 59.525563 17.534894 85.219232 -28.381180 -82.900139 -24.463970 355.174884 -30.523553 9.209412 -31.956670 -29.069306 -208.728364 -39.642433 21743 21487 
-6.868976 -45.369451 2.859219 83.148855 38.616457 112.145534 -46.227544 -138.304093 71.322661 -263.201990 31.817764 -95.403852 13.505308 4.748398 58.606670 178.605042 21744 21488 
-13.185653 -11.994105 22.734609 53.355061 18.705611 87.805782 -57.083815 -100.337490 -26.142428 216.044035 -15.257518 -70.565544 -16.153321 -20.480855 -89.470225 22.025856 21745 21489 
6.701349 54.420438 21.928085 -57.354822 -15.974716 -18.037982 -17.064552 25.382199 33.378538 -4.578730 21.022574 -74.725974 6.249150 -28.105131 -22.809849 69.569422 21746 21490 
-8.411813 -0.056477 -13.244118 24.763638 2.482037 55.911069 -25.410009 -36.034327 88.172553 -337.683031 64.232487 -37.922211 40.209422 28.267670 18.990130 135.732979 21747 21491 
-19.509695 0.496780 -22.955837 26.965526 -22.668032 -5.040353 15.169985 27.541627 59.525314 -219.674179 23.632965 -5.725573 50.696522 27.769080 -21.553272 85.329144 21748 21492 
-21.849439 -32.059322 -38.217182 73.139739 -9.227134 16.841671 10.558150 0.813516 113.339576 -723.627871 41.847828 3.251254 155.420953 102.088788 102.645417 205.034056 21749 21493 
-17.477198 -53.950746 -47.608260 35.818976 60.457867 -5.993716 29.362001 -0.608924 56.535273 -359.051363 10.407554 -9.258446 105.967038 74.623621 25.225100 95.551223 21750 21494 
-8.854342 -65.463895 -32.281417 8.214330 68.551948 -3.083398 29.849439 3.067336 45.584657 -112.394638 18.026309 -79.091324 14.416504 -5.586923 26.399276 92.646138 21751 21495 
14.419079 -45.171216 -17.576789 -27.993165 18.506742 -4.212917 34.161543 27.866723 -12.300297 171.755144 32.595306 53.055468 -69.222818 -51.247539 -91.929519 -32.705743 21752 21496 
21.276899 -19.681111 -8.107779 -72.321861 -14.100795 -2.099457 39.612481 55.421624 22.894508 -76.131990 21.758707 -14.414456 -35.181023 -19.776284 -24.724211 125.574749 21753 21497 
12.981556 -21.781560 -10.307902 -108.211720 12.877032 32.187000 33.195717 49.059877 108.886905 231.683657 -42.916452 -362.970982 -42.039752 -79.062660 -251.305286 437.724569 21754 21498 
10.725812 -16.294690 -12.515443 -160.770273 16.859658 29.341354 44.947816 87.705766 48.763250 230.836777 -15.000246 -117.753182 -52.203242 -64.468189 -155.882309 125.707142 21755 21499 
14.835417 -16.286090 -6.812942 -95.260454 -34.873731 24.896005 33.508979 79.992816 -61.084393 -372.492341 29.993739 313.385763 49.079289 101.731488 174.692439 -235.305984 21756 21500 
14.487500 2.760360 25.073011 -35.997606 -28.552183 -49.565788 30.364001 41.430706 -1.037565 -226.502794 20.304096 99.951264 23.474684 44.047946 64.467685 -24.705317 21757 21501 
30.096060 145.233768 71.206061 -202.002958 -29.913655 -337.054265 114.877882 207.557108 -23.440073 -259.677479 23.346551 177.134289 30.920880 61.495028 107.230739 -117.009935 21758 21502 
3.686645 142.817602 22.798795 -97.446266 -68.267396 -222.636660 44.624926 174.422354 -78.293534 -236.286440 3.732774 185.526278 41.873452 82.094228 154.600452 -153.247209 21759 21503 
-22.001659 -24.343680 -12.833012 195.654076 -12.072570 149.368523 -113.112918 -160.658760 -152.627290 -326.943147 -11.752895 323.173130 57.962413 111.128585 360.522271 -361.463066 21760 21504 
6.514467 15.132786 17.329414 89.961921 0.035601 23.072994 -54.362895 -97.684288 -4.384939 -317.506864 18.314861 151.831673 68.544287 59.782998 161.449790 -138.031806 21761 21505 
-9.983085 -3.358438 -1.356973 114.857818 -8.298504 71.987974 -66.717116 -97.131677 112.058752 -70.464687 30.447490 -130.273166 26.195986 -24.052530 -145.872783 201.960937 21762 21506 
1.837092 -6.247513 10.064250 100.392060 10.418410 62.104762 -56.777492 -121.791568 2.832140 -88.162135 11.272784 59.196456 10.507217 15.391247 12.556599 -23.594308 21763 21507 
5.818816 12.021291 -4.991689 134.305999 4.890804 99.712852 -86.940293 -164.817781 88.963027 -276.966673 63.948476 -22.560900 34.260063 20.373115 -50.484511 142.467403 21764 21508 
3.208890 52.961042 -16.079636 111.400167 -36.718425 57.834071 -88.463368 -84.142741 20.494435 -117.387243 38.606178 24.459441 15.915953 19.643405 -14.089458 12.357288 21765 21509 
-0.051535 59.825497 17.602022 4.552859 -41.568803 -77.254744 -3.607766 40.502471 27.063733 -91.945722 52.890935 7.724158 -11.945731 14.344577 -22.178996 24.047047 21766 21510 
-27.503194 -47.415162 21.191081 58.295562 26.860886 35.907704 5.373917 -72.710794 13.968744 -26.686463 29.470230 30.331113 -45.182807 22.768799 -36.660029 11.990412 21767 21511 
-17.448616 -57.995665 15.240300 -36.343904 36.746704 -0.383106 46.521791 13.662497 -28.159783 319.223607 -52.824276 -39.282836 -77.680992 -43.194634 -51.648071 -26.433015 21768 21512 
-9.063670 -76.577445 -2.103096 -7.776457 47.501203 27.413236 7.976458 12.629771 -39.298687 546.313553 -94.016805 -125.232099 -74.862794 -97.959177 -106.006346 -8.937646 21769 21513 
1.455533 -35.758039 -0.776368 5.642529 25.733826 -10.347311 -12.157222 26.207051 -80.847005 652.898995 -127.381055 -122.159730 -68.692538 -106.503654 -71.820292 -75.494721 21770 21514 
4.083130 10.904782 16.440131 7.833034 2.468291 -2.945628 -21.508986 -17.274754 -49.837323 548.221198 -101.274873 -167.967602 -41.209308 -87.193013 -80.990015 -19.749064 21771 21515 
-15.980287 56.172270 24.270309 16.468070 7.849235 -0.959445 -29.996382 -57.823771 -56.295601 559.132213 -94.549538 -179.157927 -62.476948 -66.267880 -60.844263 -39.540056 21772 21516 
-20.929186 42.454024 -5.867190 -25.041549 36.090728 -0.601912 -15.636580 -10.468335 -14.394100 438.146660 -60.112876 -261.217116 -37.330434 -63.759437 -145.097361 143.764665 21773 21517 
4.667152 -15.259447 -37.413702 -40.797367 41.866242 14.539482 17.143548 15.254093 297.233084 -88.918646 153.905658 -381.623340 71.838524 2.129295 -286.378095 231.813519 21774 21518 
19.112013 -18.161291 -40.435880 -33.700973 -21.187636 -23.214339 58.243694 59.344411 148.268201 61.723359 65.686891 -115.967155 -27.846749 -39.591998 -155.635025 63.362476 21775 21519 
8.105493 -32.136691 -29.454591 -15.825969 -30.768686 -5.024033 60.590862 44.513616 -173.120087 -107.919154 -84.088189 271.120417 -47.071996 -0.882971 170.709492 -28.747511 21776 21520 
3.009849 2.200292 -5.240314 -75.582698 -4.754265 -48.962006 70.888410 58.440731 11.689364 -319.963251 36.111706 120.524024 30.709723 50.904243 106.611118 -36.586926 21777 21521 
-93.498706 109.120875 -81.175539 -102.569506 -179.489373 -107.790189 139.297003 316.105434 -83.675307 -94.060277 -32.829008 157.979312 -19.328388 6.338162 103.107161 -37.531656 21778 21522 
-54.442865 112.434625 -41.912115 -159.623454 -140.058851 -164.622482 111.002670 337.222472 -110.453453 -351.083798 -2.635224 232.761442 46.523806 88.022026 239.970186 -143.104985 21779 21523 
78.505950 -52.348903 75.693468 -32.168784 108.640392 8.242886 -55.523583 -131.041426 -169.726008 -373.544841 -1.504148 545.693588 65.943165 167.878359 263.482029 -498.222144 21780 21524 
17.792402 -74.203260 18.159480 103.518174 27.915446 122.670489 -64.305545 -151.547185 -44.765123 -228.353011 -34.105779 221.444930 -18.514347 25.140022 220.652665 -141.499355 21781 21525 
39.066384 -39.494276 38.747736 6.571543 54.573180 29.412026 -40.456415 -88.420177 120.867034 -349.823993 44.724998 -182.073341 15.908510 -22.534418 39.491242 333.439970 21782 21526 
35.558536 -64.453337 34.292101 72.135775 56.256933 91.438400 -58.693629 -166.534778 18.383727 -303.964843 67.967270 93.022593 60.174236 57.583841 -77.093498 83.926674 21783 21527 
25.413401 -121.993270 19.926905 218.288473 50.367445 255.240896 -154.111008 -293.132842 30.290795 126.773980 25.214740 -171.305417 -17.406372 -58.602872 -43.174305 108.209451 21784 21528 
23.380960 -64.513720 13.584747 103.183460 -3.205856 144.018000 -101.058865 -115.388726 -4.391848 -50.239605 42.538685 -49.935858 20.401941 -5.983664 -34.809331 82.419678 21785 21529 
13.081701 52.943271 8.602037 -132.853838 -51.182884 -125.771252 59.261155 175.919811 37.487713 -38.443755 43.319993 -90.519600 22.878748 -18.439752 -33.435860 77.152514 21786 21530 
32.071622 -0.771955 20.024303 -70.469209 37.779784 -42.252237 -0.952251 24.569943 44.149943 -162.379192 16.165631 -73.676264 43.534745 5.285710 4.462698 122.456728 21787 21531 
-8.254686 26.126510 -17.602795 -67.586214 -11.907779 -48.638334 27.898679 99.964620 23.409050 128.233015 9.022726 -73.953485 -22.790039 -14.303925 -55.672939 6.055596 21788 21532 
-4.608804 25.960258 14.210433 -49.893419 37.501730 -50.556080 6.320488 21.065393 -9.671092 487.745855 -38.345812 -171.069136 -119.332357 -104.634929 -67.328245 22.635717 21789 21533 
-29.940470 -3.680934 3.964441 8.291898 40.459035 -2.227757 -5.835862 -11.030351 -13.232500 480.276232 -37.369631 -75.783861 -109.234091 -102.180263 -111.956586 -30.519300 21790 21534 
-12.539242 -33.188039 6.454173 8.137818 43.954321 -34.064780 12.802508 8.443241 -7.801690 525.709614 -65.197233 -126.565688 -105.384187 -115.887730 -90.019334 -14.853753 21791 21535 
-0.489803 -46.916479 19.074670 70.900225 27.451317 -8.014008 -13.392090 -48.613833 -15.892276 213.700937 -110.446712 -42.593407 12.060914 0.413023 -42.886614 -14.355866 21792 21536 
-3.958283 17.011647 10.652406 25.174674 13.796782 -43.014213 10.896274 -30.559287 -60.184157 478.694035 -133.618708 -185.547369 -35.309098 -57.687365 -37.486872 31.139534 21793 21537 
-1.327092 61.191188 -27.210027 22.761596 2.551831 -18.230360 16.431534 -56.168670 113.820938 23.425249 20.921388 -317.429285 -20.246417 -45.164118 -168.750140 393.422385 21794 21538 
-4.018654 70.382706 -43.615735 -4.915712 -34.772192 -42.785163 44.040953 15.683798 90.727448 -42.737169 45.418480 -78.787459 31.389521 6.991449 -170.369526 117.367256 21795 21539 
-2.830647 23.363308 -4.923199 4.191809 -29.804204 -31.058837 24.137499 16.924271 -87.167812 -82.300139 8.746443 250.840959 59.186593 56.459556 84.053665 -289.819264 21796 21540 
12.135582 38.257914 0.330896 -92.342116 -27.812439 -76.905729 55.204392 91.131501 16.640057 -341.739398 53.853943 117.926474 79.779006 76.157976 47.187851 -49.805909 21797 21541 
-45.496200 141.149554 -86.026180 -184.343654 -196.413763 -188.271865 182.656637 376.745470 -40.112515 -106.901844 17.342212 147.876591 45.470997 44.435695 50.857897 -158.969033 21798 21542 
-52.104029 139.404477 -50.720577 -187.549515 -152.506835 -195.841364 157.339452 341.978392 -93.363565 -359.855601 29.751149 235.404864 90.268467 114.913359 194.750785 -211.869457 21799 21543 
33.400240 -60.618172 61.703782 4.909814 128.794852 60.593304 -56.580067 -172.203753 -202.459241 -413.290285 34.403902 570.391137 128.013935 199.774537 253.734332 -570.568318 21800 21544 
-8.589895 -83.085014 9.756797 141.119253 38.713549 165.821916 -73.535240 -190.201365 -42.977822 -250.309048 26.778139 231.013341 32.823136 49.440115 207.193083 -253.960943 21801 21545 
10.975746 -43.381166 29.157385 32.385277 63.158864 64.144923 -43.483314 -112.957714 105.562480 33.112853 13.286679 -305.604918 -39.020115 -67.417850 -29.923084 290.003955 21802 21546 
12.363132 -75.044657 25.623736 105.429743 62.786540 130.838749 -69.080510 -192.916732 59.617439 -166.269999 53.716444 23.256274 44.241561 62.565476 -113.678994 36.551797 21803 21547 
6.026437 -126.082102 23.533206 220.341275 88.304450 260.333018 -132.482553 -339.973731 141.472020 -210.155793 34.403653 -152.104702 -3.942939 -24.407604 0.365428 214.369937 21804 21548 
-23.929423 -81.419846 1.921928 143.265555 80.335516 183.609857 -85.978530 -217.805057 70.870767 -6.803836 28.970939 -58.884560 -20.144467 -44.525119 -59.138211 89.654487 21805 21549 
-40.532236 46.730031 -18.521121 -40.255766 7.816439 -63.967750 45.724334 63.006069 100.695358 -128.056835 103.366796 -62.619799 -24.717585 -59.746412 -43.917738 114.996215 21806 21550 
-0.170569 4.342862 19.743749 20.195584 89.469537 -8.640405 -29.754001 -95.186757 66.971468 -197.160633 75.736391 -47.423934 8.955467 -23.289702 -2.589020 118.799963 21807 21551 
0.417455 33.652662 -4.457774 -27.670451 20.346307 -46.831144 -10.078889 34.621834 -31.199878 67.053933 -54.331028 31.202753 14.580950 3.864268 -53.695442 22.524444 21808 21552 
35.128767 12.684411 7.353700 -59.855115 14.828060 -51.142027 -14.588317 55.590520 -53.133991 354.051914 -77.701809 -28.333921 -74.337852 -68.610357 -70.810726 18.876743 21809 21553 
11.722170 -14.829653 0.285940 -11.620981 -29.938703 -13.062242 -3.166328 60.609798 -66.798793 366.438677 -53.082461 14.410067 -65.573720 -46.006196 -93.551291 -55.836283 21810 21554 
7.298492 -19.505697 2.893026 -27.846775 -26.267292 -37.341334 26.835814 73.933765 -48.624379 321.926711 -60.032433 -74.545049 -47.451829 -37.115208 -47.142810 -7.015004 21811 21555 
-10.441969 -43.528562 -25.348747 -13.006026 -2.818245 20.904410 25.991028 48.248112 -63.969523 434.295355 -66.851992 -69.113561 -31.946296 -33.125628 -89.536158 -79.752197 21812 21556 
-5.390300 -19.441488 -17.272272 -37.794179 -52.256051 -21.937811 33.266519 120.825582 -56.911373 620.029138 -117.018069 -262.066101 -48.858660 -83.248418 -135.728231 83.801715 21813 21557 
25.055962 -33.269487 -16.580603 29.080904 -84.011373 -23.500910 -14.129848 117.355356 234.523514 -0.208404 23.673104 -39.855093 5.727789 -42.050691 -403.573702 221.763482 21814 21558 
18.802720 -9.031491 -48.276303 -5.138580 -86.139951 -40.124374 3.588619 166.319360 141.526787 -32.566199 28.209841 6.567593 0.905477 -10.823244 -202.592953 68.772697 21815 21559 
23.232195 49.058512 -5.638077 -15.173374 -112.737052 -36.392405 -3.688330 101.338531 -141.905459 -138.890298 -14.024367 -43.699343 29.925940 75.922885 294.628800 -61.958158 21816 21560 
35.924348 112.054776 41.188128 -29.525063 -173.318701 -72.108934 -2.457290 88.242736 2.133767 -399.710093 41.874420 143.581865 61.366915 86.745629 133.341552 -69.334055 21817 21561 
-6.196256 162.881664 34.568537 -164.175730 -167.333830 -151.460038 54.093834 237.621819 -70.688733 -132.788455 -0.816645 13.787260 20.995287 49.782808 176.903747 -57.175270 21818 21562 
-60.569275 95.905728 -19.288953 -133.323305 -45.048452 -94.004225 54.119084 202.209399 -86.478964 -350.548043 16.076934 143.900028 65.285475 103.926659 234.586131 -126.748220 21819 21563 
-5.900597 -43.860175 8.410622 41.081394 89.428706 68.510547 -21.324945 -136.345552 -155.088152 -535.051551 -14.549353 343.445604 107.813290 166.550639 468.377017 -381.497494 21820 21564 
0.133775 -27.452776 18.541561 29.819485 63.208751 60.654218 -12.627035 -132.277979 -0.464568 -598.920932 32.331605 219.081399 83.054224 117.485504 279.567602 -132.134834 21821 21565 
-7.270261 -26.056587 3.807959 24.871140 64.818697 43.671120 -10.547970 -93.294099 95.984925 -39.970286 20.612889 -31.773155 -27.757991 -33.345418 -159.711608 175.960643 21822 21566 
11.032112 -47.495036 20.237153 60.178152 73.595909 78.327188 -26.883245 -168.992233 -25.156046 -54.303787 34.099871 -19.005718 -18.878193 -1.900303 30.326445 54.817731 21823 21567 
108.408482 -59.463160 108.154660 -75.204861 232.756885 -28.984169 -40.902199 -244.765638 58.302264 -133.021562 105.853599 -66.223596 -11.499442 -20.177473 -65.222322 131.988532 21824 21568 
8.982523 -38.629097 16.729893 38.312065 96.800295 82.577294 -68.618545 -136.154428 -31.136583 129.662485 19.181904 -92.620622 -24.136979 -30.594474 -25.623266 55.267535 21825 21569 
-104.351105 34.482915 -95.651081 100.877436 -106.255322 96.108139 -3.005194 77.794212 15.871043 72.875858 -16.504916 -68.008880 -4.722835 -33.262943 -32.776162 66.528835 21826 21570 
17.454433 5.567124 -9.119764 -68.997616 68.908254 -51.072963 36.070818 1.189715 -4.904655 203.607613 -38.833838 -120.079272 -12.416899 -54.292023 -36.824877 63.743952 21827 21571 
-39.261329 -6.445446 -78.484545 21.079048 -37.375088 60.595400 33.188453 46.703507 2.264436 141.604394 -23.496860 -74.394500 -8.378543 -37.043045 -15.176706 14.620825 21828 21572 
8.678404 17.750337 -29.391470 2.390230 -73.410363 0.235554 49.469107 24.278200 65.025691 -74.626077 17.824191 -62.500735 -10.260463 -4.396129 -26.804581 95.738102 21829 21573 
6.020472 20.196074 -10.051866 27.282603 -77.954437 -0.114538 25.588259 9.033433 60.629932 -193.369021 18.404887 -1.409278 -10.194303 27.965708 17.055276 80.916799 21830 21574 
-18.058915 10.075524 -7.313256 59.733740 -53.341521 3.420399 9.059394 -3.575365 41.123043 19.512798 -9.621436 -29.306869 -21.327176 -5.853171 -57.332072 62.804883 21831 21575 
12.267901 -4.920664 30.237269 18.174258 -8.833290 -44.285464 10.558819 -13.198829 -10.481099 137.664604 -16.698434 -19.296467 -23.761873 -1.829289 -51.774903 -13.822539 21832 21576 
-8.543423 -19.624570 9.820589 22.779151 -10.349028 -11.175506 -4.234794 21.327580 -23.240387 505.318898 -6.381057 -70.170667 -58.777328 -17.191190 -397.797552 68.239282 21833 21577 
7.272895 -17.016862 65.981627 -4.213913 41.040911 -45.465042 -32.108081 -15.491535 76.194528 54.434954 26.983027 -247.266835 -41.729679 -53.132572 -156.322949 340.839527 21834 21578 
-35.029207 -17.897707 49.321538 89.369001 9.993060 -2.021919 -61.860276 -31.874491 96.893532 -296.531560 35.504908 -72.323211 0.901796 -38.199261 173.112526 100.641269 21835 21579 
-25.972862 -23.374174 22.418843 54.973986 77.126837 -2.490763 -44.192547 -58.489318 -31.736756 72.819563 4.724213 176.158048 21.252971 16.586323 -20.092903 -239.711458 21836 21580 
-26.444140 -5.654686 -14.761355 -12.036342 74.291667 -20.575999 -0.767048 5.947903 -1.248346 -101.491789 2.002650 51.957780 5.934698 -10.209801 133.774596 -80.719788 21837 21581 
-48.425858 113.574515 -95.685862 -108.666428 -143.018928 -194.031628 142.446659 333.807531 -20.048150 27.324956 -3.540312 95.348658 7.122105 -1.595573 38.821664 -143.433348 21838 21582 
-30.310110 137.142773 -78.113194 -214.980443 -133.532173 -234.821076 163.406601 391.207622 -65.918389 41.946497 -17.362333 97.233624 2.249570 6.187742 90.212801 -154.549512 21839 21583 
33.782236 -52.253068 29.280487 -27.734570 116.382449 61.948619 -35.963378 -125.442776 -111.047460 150.808999 -6.313896 150.646883 -49.029040 2.811514 66.771481 -204.648479 21840 21584 
6.703396 -83.127781 -8.253179 127.680328 45.917003 165.968554 -67.412224 -187.476096 -71.673740 749.718352 -44.334292 32.435363 -145.692048 -112.316831 -209.062013 -199.074791 21841 21585 
16.581572 -40.508361 6.991239 13.598631 56.632007 68.667849 -30.517534 -91.445404 -86.084622 1128.242182 -126.843469 -197.320339 -201.065965 -236.861891 -81.629641 -198.436254 21842 21586 
26.375515 -70.310544 15.458864 79.266744 64.505455 119.762990 -55.892764 -179.166261 -51.958417 372.378074 -22.339172 -16.389024 -70.725619 -112.476971 115.916338 -214.405210 21843 21587 
14.163038 -171.519022 6.802836 255.869827 86.135176 306.142224 -134.106021 -363.488056 4.579907 282.929841 -20.191210 -72.954632 -51.591187 -120.548229 102.039995 -124.264485 21844 21588 
-19.368623 -117.986009 19.384701 190.785136 60.099605 224.738447 -97.712972 -259.940283 -18.759106 193.195894 -29.360535 -31.000762 -22.897936 -59.621880 131.996268 -163.551943 21845 21589 
-40.841367 81.966941 29.891487 -44.563093 -62.451904 -97.316563 18.584353 114.730146 53.699772 -304.700679 -6.975024 -11.054379 72.090492 50.968620 177.520617 -31.549419 21846 21590 
24.281605 61.019164 58.255064 -20.964341 -41.535136 -80.572823 -32.402217 31.918683 8.760740 -7.677465 -44.795867 -46.341698 59.062273 29.371149 47.366196 -45.745328 21847 21591 
22.010320 65.921190 19.830870 -36.177405 -87.018098 -87.683257 13.054191 90.062189 43.658986 -172.883112 12.770100 -10.602628 47.055151 29.008340 9.686133 41.307030 21848 21592 
24.347337 20.784272 5.614840 -99.212829 0.656862 -67.483292 31.531345 83.761465 -6.131384 206.473748 -80.172512 -74.453211 -24.530835 -21.114816 -94.838828 94.767838 21849 21593 
18.921400 5.011256 -44.064917 -85.980237 -3.014944 -20.887338 23.330068 106.684713 -25.195460 -12.439540 -70.072916 2.314640 5.339369 33.660320 -90.157651 156.551239 21850 21594 
37.734323 58.452026 -28.489435 -110.741489 -18.748771 -86.141294 8.456671 139.477968 1.301271 -437.733263 -17.580599 77.035153 102.816326 127.828378 -83.973269 230.306003 21851 21595 
28.679679 28.916742 -26.413681 -90.736281 -13.196623 -30.438850 14.368258 88.820756 -67.664263 -86.627704 -63.930409 45.902883 72.653717 99.238574 -186.277786 186.704989 21852 21596 
-1.082226 13.380208 -44.710629 -120.631071 -3.047445 -17.016558 84.970936 88.136784 -13.722989 101.443131 -58.338760 -109.495488 53.839191 67.087755 -446.151874 405.339034 21853 21597 
-5.739832 -23.615894 -44.836841 -62.537929 41.950704 42.565552 74.183997 -21.969757 375.124940 -98.977582 30.813997 -300.172493 57.944789 -49.651034 -320.972671 305.890054 21854 21598 
11.345449 -27.402992 -50.959173 -63.657189 38.632942 30.231961 66.955968 -5.146967 299.968654 -653.178867 146.153442 -69.267012 86.115756 21.114809 -47.530921 216.624140 21855 21599 
29.060855 -15.555271 -28.071524 -21.770941 50.421159 9.823320 19.018850 -42.926448 -144.834148 -969.616613 148.328778 325.768460 152.181354 249.192589 63.427163 175.552417 21856 21600 
17.132574 13.595417 -11.641567 -28.075850 63.448494 -48.735272 14.105265 -19.829060 -2.854958 -890.990430 126.507623 277.467277 122.195307 161.484649 301.296120 -95.105588 21857 21601 
-47.339086 50.843820 -82.370039 25.396317 -97.225906 -65.789672 53.391742 163.092824 -80.016330 -542.341590 88.888672 202.295378 75.876826 128.370062 106.000163 20.926819 21858 21602 
-32.626606 93.016517 -18.957746 -67.600574 -121.678621 -165.031350 78.819139 234.059240 -74.627061 -557.125037 82.776984 213.718175 78.889135 127.207785 200.643651 -71.483632 21859 21603 
34.507549 -1.892457 104.605973 -36.802101 74.316214 -70.728799 -27.973356 -76.033022 -101.547667 -284.151784 83.486871 201.244328 51.344343 106.735240 92.479259 -149.590591 21860 21604 
-11.715743 -57.410288 32.517509 156.521104 4.653563 107.953909 -79.489647 -153.030407 -123.998472 430.143114 4.027887 47.650900 -58.570817 -9.950073 -162.332984 -126.969555 21861 21605 
10.347372 -9.365204 60.006447 18.806894 25.547701 -14.266274 -30.386794 -60.690141 -54.422487 712.799313 -98.510989 -96.873587 -139.665907 -152.939382 1.403384 -171.790345 21862 21606 
8.989154 -47.520293 48.031743 102.473092 29.786249 72.024660 -61.990194 -151.794412 -79.437364 114.270400 -50.826925 61.526782 -31.029484 -24.473636 62.796150 -52.825922 21863 21607 
9.515473 -173.724907 19.097570 274.825495 51.821052 279.483776 -148.337331 -312.681127 62.754991 -257.883504 22.714509 75.431260 23.017511 7.379420 60.448647 6.137166 21864 21608 
2.584709 -141.226751 -7.259665 161.532629 -2.473778 193.316430 -89.476146 -116.997428 -3.213682 -95.610858 14.875027 19.590592 -18.275012 -4.881275 62.397939 25.117269 21865 21609 
7.684470 34.928210 -7.195597 -121.962721 -85.780991 -129.811732 85.931485 216.206876 -14.665682 2.591298 -18.231930 -4.853799 -25.672448 -1.973411 77.778757 -14.972785 21866 21610 
21.810662 9.850595 28.261935 -64.207362 0.575093 -68.906047 28.315666 44.299457 -21.103435 -37.368870 -29.201593 -27.376847 -3.693481 5.660201 66.063153 47.020872 21867 21611 
-29.734454 52.749237 2.294209 -51.977956 -23.503087 -46.642272 24.510514 72.303809 14.814858 -13.238884 5.414866 -76.591759 0.590348 -27.620487 69.340673 27.290385 21868 21612 
-16.611821 64.090185 16.573193 -86.447426 40.409832 -68.324413 21.496783 28.813666 48.337687 -147.501168 48.747066 -99.403735 32.375637 -0.022429 79.063405 38.403538 21869 21613 
-21.062678 67.442434 8.436839 -28.281729 4.636834 -30.494632 0.843812 -1.520880 2.078921 -69.761170 15.136349 -86.597258 42.259430 28.556577 71.312600 -2.985449 21870 21614 
-15.648804 77.442137 29.730364 -35.845965 -16.173329 -69.712182 13.681961 16.525818 -30.593065 270.093897 -29.925096 -49.542242 -24.516736 -34.756282 -44.265260 -56.495216 21871 21615 
-16.524231 45.804004 34.769789 36.634955 -4.376458 -29.905212 -30.774746 -35.628101 -27.848933 326.736794 37.522936 26.774826 -97.252751 -105.255103 -48.859791 -111.817979 21872 21616 
-18.038188 59.222407 28.534635 -6.450617 14.553621 -61.893517 -20.180393 4.252051 53.071997 430.374924 33.984069 -164.706495 -129.009176 -147.977153 -101.667938 25.929773 21873 21617 
-34.465002 -5.163289 9.315822 20.090074 60.415742 7.412185 -14.193276 -43.412256 467.225412 -116.232404 39.702629 -485.492407 -140.507955 -244.484419 -98.314071 578.103215 21874 21618 
-39.704820 5.683281 23.508543 36.755267 13.080373 -25.645656 5.169561 -18.846549 285.665026 369.621509 -22.231464 -348.781829 -124.920509 -208.464243 -203.776289 252.887799 21875 21619 
-6.620766 -0.112082 26.747066 58.348917 -28.880994 -25.500561 -3.780186 -20.201394 -276.092569 606.387823 -88.071839 120.219624 2.698152 63.708904 -36.147311 -392.702784 21876 21620 
13.514654 15.234073 10.354154 16.931695 -62.080089 -43.308026 10.190519 39.163020 -146.685545 350.068041 -99.540176 83.831206 -46.015561 -25.097243 191.346275 -307.906997 21877 21621 
-45.965141 72.271275 -79.687233 -1.904140 -187.151856 -58.318522 72.528569 228.227047 -199.429776 686.275778 -111.695142 29.985897 -53.998961 -24.374334 -26.204456 -300.559005 21878 21622 
-19.634496 116.670011 -70.411791 -170.568267 -147.063681 -157.308700 116.267783 332.049140 -179.434344 233.284403 -74.143590 130.894471 -2.132200 35.964544 149.287906 -293.721191 21879 21623 
72.949390 -2.332938 36.864534 -100.011866 70.396600 -31.129912 -11.958833 -34.776975 -283.764090 294.165980 -110.857192 255.415339 -23.964923 10.134649 343.846243 -484.976006 21880 21624 
20.514662 -79.311880 -19.981112 116.771554 19.409566 166.220188 -69.204067 -154.418911 -131.631917 -41.510188 -35.819702 113.769725 53.086578 57.384302 191.831358 -207.110157 21881 21625 
38.759364 -18.766440 7.094499 -29.348545 34.387579 22.584247 -15.984454 -38.726249 199.365139 -770.551105 112.783497 -60.057495 153.549008 136.114785 -59.884024 288.680193 21882 21626 
33.756981 -64.854016 1.589729 67.156151 45.703517 114.428921 -51.703830 -146.077454 62.025455 -634.376602 90.245787 111.351313 134.252598 154.825074 -4.390636 86.067012 21883 21627 
26.477361 -142.273229 -20.207440 228.006204 66.015217 291.821107 -142.867822 -306.971398 65.111912 -146.782097 -1.373885 -2.800546 50.536733 22.344516 -84.883391 97.846759 21884 21628 
0.613673 -86.789455 -37.437879 129.062711 32.990655 211.349790 -93.078608 -156.710887 11.426526 -320.963034 17.540117 133.528214 102.787049 79.198196 -82.087445 58.570376 21885 21629 
1.281536 45.567017 -14.074746 -145.808831 -23.192085 -96.820068 84.808240 148.238938 40.262954 -321.197386 37.482190 91.935075 68.672823 32.444343 -18.165503 68.565504 21886 21630 
43.800904 -8.898458 11.693455 -96.227449 44.802991 -54.525087 38.491682 20.861962 41.616122 -51.960222 72.531319 -27.029775 3.924850 -15.602806 -101.758184 78.278695 21887 21631 
1.390894 14.963131 -27.993429 -67.589565 -19.601805 -41.530217 44.309437 96.051554 62.749724 -192.422354 121.163967 23.326704 -23.315146 -17.417912 -24.877536 50.792553 21888 21632 
10.843938 13.492115 7.514205 -68.601407 1.770487 -69.724041 36.361828 68.342873 40.690201 73.535455 13.421609 -30.304395 -42.399811 -12.951168 -75.342400 33.350508 21889 21633 
-4.539892 -2.093173 -0.416101 -23.551257 -15.764525 -4.411442 15.568254 35.208136 38.333757 -23.817384 -28.692285 -1.271676 -24.637269 21.551394 10.529788 8.003676 21890 21634 
-0.975853 10.796244 2.698541 -105.151574 10.542676 -25.164431 43.369281 63.885116 21.514578 533.052050 -79.265718 -141.295387 -143.541766 -114.607909 -84.467612 8.611764 21891 21635 
-8.312684 -18.097254 -9.548430 -56.428333 43.735273 30.584860 18.064944 0.001624 -14.249399 646.120665 -81.523845 -114.115588 -162.253796 -128.045847 -100.425090 -45.507101 21892 21636 
-25.289618 14.530994 0.423445 -55.661944 46.906716 -15.022087 17.812066 16.300429 57.927957 343.880401 -26.069904 -216.597191 -124.714126 -109.969590 -35.023527 110.565979 21893 21637 
-23.043386 17.041354 23.494817 -14.217506 39.669971 8.352134 -14.207823 -37.089561 308.291400 253.230317 16.947800 -288.816065 -142.162169 -216.464486 -253.828332 322.801535 21894 21638 
-5.375637 64.907501 27.151845 10.011335 -61.231189 -33.529296 -14.556423 12.621865 270.830902 -209.292105 77.833781 -115.688003 12.715438 -54.781129 -272.161555 290.542671 21895 21639 
18.473780 49.924252 21.730094 92.105283 -90.244696 -48.211669 -40.614276 -3.162769 -191.168221 92.031794 -47.602490 34.298946 65.047021 101.224225 58.694275 -112.525551 21896 21640 
0.628314 22.265832 0.237621 89.497309 -33.441804 -71.339207 -22.840358 14.992292 -109.983477 89.208753 -56.370695 110.054965 13.212486 21.274201 98.229058 -165.625290 21897 21641 
-76.275076 32.656428 -70.897387 122.771138 -115.020573 -45.766648 32.253483 120.278635 -145.615079 269.258081 -62.443076 13.466097 10.299731 25.086087 4.296412 -114.348252 21898 21642 
-38.452193 64.330575 -41.922976 -63.778424 -92.942870 -137.026400 96.008713 213.783574 -172.119464 39.623515 -60.122500 133.466209 36.570834 63.278486 155.790741 -196.487820 21899 21643 
46.326125 -35.328666 40.071963 -78.911483 98.929133 -55.982502 12.084882 -27.189452 -216.030716 -183.421982 -43.966084 440.888815 124.690075 162.159055 164.582911 -448.902075 21900 21644 
-9.908780 -98.382814 -16.760268 144.894926 33.117245 138.951922 -56.191419 -135.720812 -81.529803 -517.855460 1.175590 192.827953 136.475859 116.459986 295.774950 -143.329075 21901 21645 
18.141698 -36.576623 13.397417 -12.974018 52.096510 2.364980 -1.558966 -34.890998 137.873128 -735.126517 99.117093 -144.553302 121.492906 44.548206 107.636378 369.012109 21902 21646 
10.206227 -69.789476 5.978287 72.751917 51.403803 83.743970 -36.749982 -117.544746 14.547285 -417.792591 57.499702 88.614455 126.543589 101.125077 -116.691213 146.153697 21903 21647 
2.102547 -133.277220 -4.812554 176.000822 81.958196 202.482342 -93.282908 -231.171225 125.442725 -661.937024 52.304473 21.013148 79.587527 63.414109 63.890709 256.284333 21904 21648 
-12.222790 -118.511439 -18.133645 116.975248 111.015069 143.957702 -72.178712 -150.901433 29.554262 -111.925573 -28.186181 -60.933624 27.322360 40.333088 -43.405692 147.241359 21905 21649 
-0.956331 -7.101675 -5.784223 -67.137806 23.783011 -47.587301 35.881207 68.903118 68.676419 -193.640361 9.201484 -42.020406 20.613364 23.649268 5.967032 107.553199 21906 21650 
42.117334 -2.784872 39.572836 -58.980928 -6.780501 -27.051590 19.537155 -5.629434 53.308701 -88.706169 47.418995 -68.893125 -38.154891 2.025572 -13.535183 106.536099 21907 21651 
0.676903 69.123166 15.103308 -9.770060 -62.375765 -33.562934 15.668750 5.136631 19.373850 44.184087 37.688333 -21.192272 -56.087651 0.025452 -40.739063 16.747264 21908 21652 
2.168414 106.833405 25.662144 -39.488989 -18.412199 -71.144333 5.064067 -10.682509 60.776975 -305.163676 103.153741 -1.063439 -0.475881 28.908585 45.958127 67.905568 21909 21653 
-23.047939 49.176384 11.550821 15.731001 -13.347638 -30.935374 -8.975381 -0.151873 -64.508072 410.310832 22.884953 -8.971256 -80.200370 -66.130819 -77.610171 -135.775096 21910 21654 
-30.330742 21.809297 23.129079 -19.352132 1.941043 -58.381239 15.286847 45.897846 -53.627506 562.795744 -22.089302 -87.387468 -90.922898 -118.019680 -63.226523 -127.522365 21911 21655 
-30.762604 -3.195298 -4.684561 -1.654205 -19.798943 0.383102 17.044338 42.668171 -70.364279 486.549483 -36.390615 -33.652867 -49.066926 -78.858776 -75.962447 -142.253573 21912 21656 
-1.938786 15.905092 -21.894826 -42.965605 -73.389638 -25.834309 48.689996 101.428075 -61.044683 443.957694 -46.206288 -168.506266 -61.516107 -109.344173 13.263029 -10.603207 21913 21657 
13.596589 -4.860390 -23.117105 -34.289008 -51.514006 3.676335 31.416633 65.090953 213.930297 316.241617 16.868791 -219.150232 -109.839693 -215.199225 -223.303855 220.452300 21914 21658 
-3.669954 3.451603 -29.803503 -53.969151 6.428081 -5.349086 14.397678 68.514332 209.974141 245.772369 33.488094 -143.392889 -78.345780 -123.347117 -356.225801 212.076984 21915 21659 
8.003574 -9.990687 -23.871914 -70.091965 41.299598 3.847432 -5.728320 56.532283 -148.420953 71.703971 -27.582287 31.610932 19.843114 83.321682 64.144366 -94.620823 21916 21660 
25.448174 -13.442719 -32.186232 -114.259673 44.790566 -5.702453 16.694596 78.657740 -116.606896 253.576369 -63.610870 113.059667 -39.225509 -8.699640 69.619393 -208.112513 21917 21661 
-24.663726 34.480824 -82.964606 -44.659681 -118.068046 -15.682051 63.507526 188.049759 -127.353022 334.784549 -65.704913 6.799698 -33.447123 2.511795 5.194673 -122.785656 21918 21662 
-14.393525 106.582421 -35.814050 -157.958756 -125.566942 -179.229442 124.921063 281.459231 -150.524577 110.994631 -53.056552 124.145223 1.628616 42.365561 128.361984 -203.914887 21919 21663 
46.575579 16.811642 66.390829 -96.924096 84.883538 -71.844367 4.628062 -50.521187 -217.359482 28.552312 -52.605865 288.895937 -5.726794 64.428126 295.786017 -401.970252 21920 21664 
-3.964213 -67.947600 12.663530 155.439400 30.475250 163.999668 -86.621452 -204.044583 -54.424176 -134.542672 26.989402 177.737918 -35.897909 33.988266 141.827945 -155.678774 21921 21665 
19.125895 -3.181099 34.910693 -11.160838 44.098296 -1.474671 -14.916559 -67.401717 139.775754 -223.212724 66.441888 -68.851456 -30.216156 -14.305677 -64.824889 195.193258 21922 21666 
15.563204 -47.559576 31.007361 92.348387 49.051369 98.696820 -60.245092 -178.862473 -19.406628 107.595725 -27.546723 -79.932148 -35.246511 -16.155166 110.221036 -39.529585 21923 21667 
-9.551771 -165.359227 8.402857 293.354828 87.179475 318.889583 -146.970709 -385.945038 131.385352 -173.225392 42.011351 -96.814608 -15.070526 -28.079056 57.950880 81.841998 21924 21668 
-43.202201 -107.262365 -33.384604 211.599935 43.835631 227.740898 -84.479635 -214.847658 61.678435 -144.376160 11.563991 -61.771601 34.389885 13.083089 -6.433044 91.865405 21925 21669 
-14.737221 70.975603 -30.980393 -82.466377 -40.440889 -128.772482 88.004813 138.416946 20.040703 -60.822517 -56.381607 9.303221 53.524548 40.253650 -145.894104 139.976106 21926 21670 
9.506007 12.481316 27.268051 -39.651476 50.705691 -68.737741 27.030180 -18.602028 10.894138 -315.035011 -51.175240 58.487736 123.375917 122.110416 -147.308706 198.650750 21927 21671 
-25.232370 28.195910 23.243190 -35.625867 4.372668 -52.874362 7.992392 49.928439 7.028227 -488.348541 -18.636343 124.824685 157.313647 140.526713 -24.979751 102.271363 21928 21672 
16.408485 46.451152 77.523665 -66.801505 -0.543675 -113.755257 -9.920518 50.637653 130.989140 -1052.437560 121.427926 170.341669 211.293304 176.159952 37.657393 204.568176 21929 21673 
-15.629176 28.804339 58.616585 24.701176 -23.767462 -38.266100 -30.064304 -4.395058 55.315006 -562.613483 102.762970 122.659604 109.691680 64.616703 47.396585 60.170936 21930 21674 
-1.317567 57.265640 46.190358 -31.113288 -36.019414 -68.178650 30.385189 2.787732 -18.796872 362.979666 -19.496826 -62.535195 -53.604795 -90.603416 -78.730400 -39.212161 21931 21675 
22.210403 36.189285 19.710987 10.263607 -56.191324 -7.472894 12.598610 -37.308674 -54.426924 601.217389 -94.840738 -139.813855 -88.377032 -97.037384 -47.070562 -79.650894 21932 21676 
23.587675 41.834941 -6.605546 -41.661085 -51.470593 -63.642137 7.759880 90.196864 -4.190368 509.818010 -40.675037 -165.614263 -32.793999 -43.107028 -263.201145 39.763830 21933 21677 
29.875252 2.398868 2.916440 -3.970285 -13.096116 -43.890963 -41.239842 67.006646 101.579427 255.131391 23.403846 -394.400096 8.660658 -76.590009 -334.361650 416.576434 21934 21678 
27.170881 23.972319 8.237468 -22.257068 -23.719948 -65.720730 -37.569911 89.886990 110.415335 -235.213317 60.685607 -165.945990 35.262749 -40.471375 20.327265 214.939727 21935 21679 
