17.476173 -26.028460 -47.678073 -83.240716 -13.539919 0.220354 44.949608 107.841033 -50.762224 532.099161 -25.718308 -48.433320 -60.135702 -55.887856 -336.700771 45.539020 9394 9394 
39.047711 -27.837468 -42.927842 -73.167055 -9.914835 -12.844558 26.945696 100.698351 -52.139538 636.996551 -34.494150 -51.814214 -49.934074 -46.672256 -386.094046 -15.848272 9395 9395 
67.054343 32.963739 -21.333425 -223.593305 -17.392729 -156.981542 122.854641 196.428278 29.662477 282.826853 -44.454773 -249.969637 -53.946258 -57.120973 -159.595295 252.597606 9396 9396 
36.751347 73.477679 -4.827424 -318.759786 -77.528318 -273.761727 236.176623 328.471606 116.514408 233.888687 -96.205333 -482.995735 -157.583898 -148.974140 71.862644 463.493368 9397 9397 
-52.507148 -25.750652 -16.066261 35.268918 -22.850598 33.237275 26.516303 22.152163 -15.863312 178.692135 -43.461635 -21.954330 -58.781148 -49.422435 35.046902 -24.256178 9398 9398 
1.260618 -48.729590 22.044573 162.524966 48.683399 170.543276 -122.054855 -234.272388 -124.389178 -272.642824 41.261297 306.162661 93.776584 115.394549 139.288932 -298.852020 9399 9399 
-12.817808 -18.366472 13.502448 60.590580 5.038719 61.208805 -30.784699 -78.371574 -93.205484 192.718602 -37.421323 48.241220 -24.744250 -10.041325 74.137223 -149.684662 9400 9400 
-3.461764 -26.560805 22.110096 105.787960 19.645499 106.890417 -74.808631 -149.602772 -126.147769 123.962759 -16.211293 143.893987 17.575180 32.029881 50.791180 -225.893925 9401 9401 
212.511881 82.678627 194.012071 -70.688349 250.779603 -67.160712 -175.455839 -426.677281 -284.455008 -212.568622 112.763204 150.218268 265.270975 311.985362 226.198870 -569.413050 9402 9402 
341.292726 91.322024 310.287137 19.183574 23.197555 16.934982 -280.695192 -521.522805 -375.930864 -19.534023 70.426269 127.027707 259.000190 347.830869 319.632968 -728.453116 9403 9403 
-97.640083 -93.889899 -26.392843 179.975998 -218.421362 222.760636 -30.930034 64.537587 23.905390 -37.758655 -104.353218 93.383298 -132.765380 -107.893113 235.407755 30.073923 9404 9404 
-223.997576 -84.473092 -154.065605 -4.645918 53.236387 61.536195 132.300559 220.109050 108.548690 -195.746425 -80.024747 70.453964 -133.150402 -164.551832 150.031349 244.439403 9405 9405 
-15.975957 -33.031394 -62.565239 -19.850661 -78.677730 35.335428 74.089024 100.676530 88.806112 -652.825450 16.881893 114.042895 15.568074 16.568158 268.347215 132.611103 9406 9406 
-117.949791 -44.576977 -158.584324 1.860267 -34.762455 28.621681 142.605954 182.785646 138.139055 -526.275355 44.718279 27.113215 -36.223641 -57.451911 157.446639 252.533720 9407 9407 
-63.612855 1.050934 -68.959123 -7.972788 -10.897167 12.097675 75.111392 63.181933 63.114175 -326.532053 97.946889 20.864876 5.504498 -13.394917 31.319046 121.177487 9408 9408 
-100.273822 16.210345 -38.280010 -40.582798 -5.877853 39.152100 66.068581 63.583457 131.096410 -407.098984 94.078005 67.300003 35.896363 -4.401099 -119.700539 202.829841 9409 9409 
-49.576451 17.192196 -2.141042 -28.118865 48.139224 0.786181 27.411192 -13.692435 52.460104 79.108308 32.521599 62.503158 27.133326 -16.138780 -303.641625 66.053909 9410 9410 
-16.137729 -12.555818 7.377628 63.579352 -40.974340 -11.197906 11.436928 -1.528114 133.814755 -179.552349 23.023825 27.290393 64.385296 40.080861 -269.090397 160.047617 9411 9411 
-24.683828 -24.382629 16.124197 119.186050 13.325355 -30.941723 -39.983642 -28.643781 82.829203 187.447820 -13.028031 -165.873719 55.640345 43.933513 -297.174658 106.225527 9412 9412 
15.026631 8.933619 67.964156 158.054550 -56.390747 -48.829354 -106.949406 -37.809448 -13.102858 713.357830 -11.384054 -190.202703 -46.556573 -44.367406 -392.824139 -14.920098 9413 9413 
-0.348143 35.811732 57.115105 66.081578 -15.020879 -67.311541 -68.580454 -7.747398 -25.501271 478.208812 45.750278 78.922082 -59.329467 -71.708961 -416.159609 -30.181863 9414 9414 
42.281592 20.436135 41.506996 -20.204026 -40.632816 -54.774961 -32.169640 43.556721 -6.254954 90.898617 59.120057 113.832930 12.717230 14.436657 -294.544063 9.793526 9415 9415 
42.069782 85.530011 62.858852 -283.844100 -3.468977 -253.250075 115.413986 234.690520 133.030142 -287.141957 79.720394 -147.171316 74.044057 84.810002 -322.699890 385.408569 9416 9416 
-126.593737 39.515756 -52.977853 -138.997564 -223.253100 -126.606714 215.016450 413.896762 330.803360 7.749567 45.713136 -198.387264 -77.171959 -83.569985 -345.400865 320.264010 9417 9417 
-89.160256 -39.022499 -75.455397 148.427949 -121.144669 127.572024 -5.852466 54.635312 90.332427 93.656557 -47.530932 9.745836 -100.231467 -92.267084 123.749070 -77.454406 9418 9418 
131.677629 46.028241 97.997102 -13.429760 163.727635 -14.181801 -139.278350 -272.540694 -297.794901 431.049362 -128.753110 -75.491044 -35.756638 -3.823327 300.145126 -189.575469 9419 9419 
7.045781 -6.077205 -2.735620 88.418555 -10.184325 85.111185 -62.616702 -98.961669 -79.233353 119.162034 -59.729721 23.852491 -42.411900 -27.211252 221.910871 -156.339171 9420 9420 
64.316920 14.255706 39.800945 23.632987 83.603648 29.430407 -88.098932 -166.941681 -146.248317 59.875787 -56.820114 8.759583 -3.188753 16.597334 258.078720 -137.054240 9421 9421 
126.353567 -10.928816 69.005177 216.775835 143.401524 225.425978 -264.939311 -505.093955 -399.118530 313.632777 -48.886567 349.312233 93.808710 133.683577 150.995440 -593.427640 9422 9422 
336.726357 37.499773 222.821451 152.310286 8.938295 135.801618 -298.536249 -595.561531 -409.786121 41.119761 47.948739 237.489553 199.924723 261.336562 369.844009 -747.877225 9423 9423 
34.060716 -9.958516 38.524585 -47.910791 -70.194897 -69.761233 71.725099 53.515038 -22.437785 251.760516 -88.825488 -301.179077 -118.099814 -112.030246 373.750980 17.060913 9424 9424 
-247.596128 -73.823114 -171.655438 47.866780 67.420982 73.704187 117.446798 186.635933 83.774218 247.034989 -170.691883 -91.819144 -201.191541 -221.639036 161.897806 192.634590 9425 9425 
54.465284 56.940090 75.911415 -150.762329 11.905939 -133.391671 13.363586 71.567685 112.595909 -664.740272 4.095840 -174.401296 66.203829 75.526712 353.690567 227.028711 9426 9426 
-111.577788 -35.341660 -57.569073 -30.203417 18.164334 -6.640930 54.965723 168.202811 208.899066 -820.851021 -13.430699 -6.760195 35.658785 24.538284 276.956488 294.989292 9427 9427 
9.550478 15.545041 -41.876176 -150.576993 51.379407 -49.127215 69.887826 95.217631 70.441493 -329.545212 -31.385299 -47.036090 27.258029 22.141093 134.140163 153.985823 9428 9428 
-28.569410 -3.497734 -89.904034 -98.331288 3.876154 -33.949015 95.629280 154.746047 147.582957 -516.885268 92.811887 -31.663864 54.825954 35.518653 29.574389 188.235292 9429 9429 
-32.963369 3.363078 -71.819665 -27.664763 27.907528 -32.285109 50.370710 83.091590 14.667484 -59.430445 125.986876 22.376505 8.546857 -9.632281 -169.820529 67.305532 9430 9430 
20.619543 65.628287 -30.039982 -56.578862 -54.158193 -100.595431 42.685230 112.439407 9.901760 207.334988 136.050032 -4.816825 -60.242664 -72.604493 -253.965231 38.342433 9431 9431 
-25.080785 42.414909 -16.296151 23.981814 -23.542478 -56.619580 -12.288498 67.430770 -29.343711 628.753487 19.416390 17.649728 -127.168991 -142.656279 -334.736072 -31.914552 9432 9432 
28.452537 28.353862 83.287539 -33.931843 -40.352917 -88.225264 -4.129647 26.545734 -3.344159 680.771495 -46.428869 -96.853346 -95.827094 -113.377792 -298.516286 -26.423950 9433 9433 
-12.572271 3.896402 19.105404 11.384739 27.091846 12.421499 29.978886 -91.306505 57.547790 306.829665 -17.980470 22.252726 -47.591427 -73.518525 -277.673142 30.133384 9434 9434 
38.968509 40.274637 8.980759 -25.022932 51.289568 9.013014 43.940238 -167.443792 69.865832 -147.026608 93.259441 84.940772 54.913192 30.486548 -244.236933 57.797756 9435 9435 
-56.032187 27.069477 -41.739344 112.067894 -14.319993 -257.781048 144.170760 86.564441 162.819079 -673.747091 117.506021 -176.673470 116.530358 78.680480 -58.681078 433.565701 9436 9436 
100.293190 -170.594974 -308.773788 129.742666 33.870724 -412.122049 200.264622 427.319608 362.378533 -87.504928 -48.223302 -465.835925 -72.694023 -128.588793 -119.001290 559.469728 9437 9437 
23.667846 -135.514799 -140.619291 -125.261059 23.758602 94.544728 36.198082 223.225892 147.905656 39.675334 -64.515896 34.724123 -33.733198 -31.594808 -80.704483 -11.756729 9438 9438 
-117.643496 85.693786 208.199548 -159.300536 -42.085738 225.742286 -74.703430 -125.902421 -283.397016 65.887847 -51.919098 171.190710 84.908298 139.835925 184.949598 -311.456264 9439 9439 
16.961535 -51.588449 -7.938334 -44.774148 23.921541 132.944827 -54.178589 -15.348381 -78.335060 47.800088 -54.237356 113.636090 15.345734 36.844174 117.272164 -198.325835 9440 9440 
-54.251255 19.213140 93.732014 -85.746639 -7.810017 171.177246 -60.300357 -76.014132 -137.614928 -115.995150 -16.884959 167.993426 69.526018 102.848061 138.011711 -207.884178 9441 9441 
54.798226 -13.774862 83.401987 101.890593 77.699870 242.351179 -200.336996 -346.029996 -382.580778 174.002449 -79.683010 302.382565 69.934118 111.495646 388.333767 -583.884757 9442 9442 
-100.265770 142.018253 336.155557 -36.449234 -2.206544 103.411643 -141.673289 -300.990617 -517.603642 339.439716 -117.391542 443.027815 84.889025 146.422720 417.975891 -796.759983 9443 9443 
-140.741693 56.301272 127.278048 -89.904608 -134.781254 -22.979480 60.370174 144.457541 -51.121184 365.098260 -75.161646 -73.355924 -48.122112 -26.715430 -18.951617 -71.670348 9444 9444 
77.925615 -174.702742 -241.956455 66.465179 19.557206 143.095241 -5.146832 114.762789 222.907326 -197.450683 23.951278 -186.214461 -40.388695 -55.276408 -21.688812 254.160456 9445 9445 
-17.490483 50.152718 60.847945 -141.886266 -28.065590 -47.615424 61.893148 62.163952 75.864182 -554.409990 90.241520 -66.750909 74.777553 75.999784 148.549490 155.728371 9446 9446 
54.991952 -69.969617 -143.542494 8.368442 6.304490 38.051494 26.287538 79.508195 166.273115 -285.555453 87.870063 -67.226165 -29.220280 -59.396613 16.276077 170.979256 9447 9447 
41.205993 23.795927 -30.285821 -16.324607 0.170679 -4.544373 -32.668948 18.651149 83.706648 -390.335183 95.846436 -10.347977 21.272457 11.225915 78.859220 109.772484 9448 9448 
36.854550 -21.581137 -83.194667 36.919249 17.500895 3.864315 -24.215037 33.851834 83.507573 -19.965247 -11.171890 -55.970561 -8.310704 -9.862830 -93.529209 115.302867 9449 9449 
1.237905 -59.593597 -45.353034 103.441862 55.593265 74.418686 7.692234 -137.437320 -76.897638 566.746440 -123.555766 -23.225863 -39.765415 -39.360177 -243.098909 -20.842671 9450 9450 
-63.666824 -19.968362 69.171344 51.762168 46.097152 15.282300 37.770789 -136.448566 -75.774160 552.406280 -108.712609 0.612007 -16.313417 -22.897620 -307.344062 -21.976419 9451 9451 
-20.228189 4.977018 27.456250 2.312434 28.347773 46.274183 -7.698598 -81.440871 -47.610115 578.754779 -45.181984 19.230426 -73.582211 -85.030789 -308.650881 -37.929224 9452 9452 
-20.959430 64.994742 31.752920 -127.571651 -0.844580 -23.800960 72.259551 4.169409 23.968125 76.318052 28.523618 71.720392 -16.869957 -24.936450 -178.815378 20.091597 9453 9453 
1.638617 -28.418661 -65.010233 -23.172197 18.310585 11.499240 57.954242 27.198407 74.196886 -83.287175 17.961188 -20.303260 31.924269 18.388878 -87.070294 48.189508 9454 9454 
-8.240124 9.564239 24.574262 29.692616 -41.224483 -72.129566 28.498608 29.264449 76.464927 -187.455187 67.469653 -11.542245 37.919663 29.256168 -63.502203 51.389225 9455 9455 
-38.288710 -32.558991 -45.834119 145.977732 -182.701794 -16.954094 46.682604 123.677372 200.558258 -630.113041 96.637145 97.136169 3.708090 -15.951612 -230.434646 478.459637 9456 9456 
16.867331 -238.005879 77.837041 -81.751521 -222.448816 -168.268691 118.474843 497.295694 506.724404 -118.938773 5.483879 -125.415580 -211.601879 -268.293236 -165.852510 377.893696 9457 9457 
77.705058 -72.585340 16.168287 -139.272925 -7.098204 -186.185954 40.929607 270.339471 296.319267 -186.380703 70.376940 -189.837480 -38.202166 -50.232265 77.120635 20.835771 9458 9458 
16.628184 202.027962 -91.544004 103.583538 61.452423 39.041796 -107.300856 -223.889043 -300.038413 -219.943640 47.852636 32.563090 146.451036 196.935177 128.546904 -32.366790 9459 9459 
72.477959 8.469097 16.924619 29.758497 51.320540 -18.698967 -88.828094 -71.423651 -98.476391 143.288464 -15.232144 -3.261218 -6.714346 7.643219 197.584755 -224.832338 9460 9460 
32.912449 95.300424 -41.584526 62.503098 53.456453 10.991508 -77.473679 -136.105728 -166.520121 -67.647886 22.596615 6.034920 70.804727 97.553423 134.916968 -97.738647 9461 9461 
89.694981 46.250474 30.291593 170.557384 110.746823 125.836283 -208.061795 -365.315744 -376.413486 171.495558 -44.024622 211.914489 57.441910 92.911547 368.623401 -481.948798 9462 9462 
231.002167 55.723758 133.348715 296.788222 -125.743418 253.671720 -320.843587 -523.947578 -441.796248 14.062920 5.954927 354.535463 93.416203 171.540068 411.688146 -609.401478 9463 9463 
-34.712571 80.422891 0.369140 96.799010 -148.239553 50.059828 -28.216706 -16.482039 -71.517224 -138.514712 13.126601 -26.484702 -77.716923 -43.985965 352.003390 -6.910465 9464 9464 
-147.829561 13.439170 -67.912997 -95.987276 143.156894 -169.549599 111.435905 213.247464 151.590070 29.835815 34.651530 -195.122032 -116.214114 -135.609754 68.459542 162.408943 9465 9465 
4.705552 92.667670 43.970732 -16.756211 -6.422009 -106.211328 -23.529546 11.575141 28.524428 -432.931362 138.160826 44.140540 111.667859 135.347497 -253.013851 228.104062 9466 9466 
-61.452947 -17.986968 -29.321683 -61.800729 104.147104 -90.164243 -8.913264 165.492729 135.990340 -662.393227 49.453105 -29.057419 64.881301 59.270285 207.916409 173.939206 9467 9467 
-0.804871 15.058593 -41.430680 -46.116953 36.109909 -60.160896 -4.692876 102.037774 32.140816 -280.270583 -2.707867 -46.037077 60.544936 70.327362 6.576965 159.425449 9468 9468 
17.859885 -43.093455 -47.903920 -62.998123 -12.205360 -73.095791 68.361036 153.075728 57.060507 285.273140 -68.701907 -161.103631 -50.264496 -63.106601 -81.249258 82.092246 9469 9469 
-12.219192 -44.342852 -45.745083 -60.869505 33.338047 -59.230280 67.611642 121.457223 -18.106539 603.620078 -114.769656 -206.808799 -56.550069 -77.677744 -161.714887 32.007616 9470 9470 
-1.892006 -38.653488 30.739852 -38.209190 -27.197494 -53.957679 57.020734 72.149271 -11.162194 712.178089 -82.091725 -148.408229 -83.571813 -105.137213 -263.937253 -17.869662 9471 9471 
-42.524178 -6.832040 -8.735328 -40.943573 30.906972 -39.610179 79.779560 27.958766 -10.592539 602.413625 -57.459568 -41.201800 -110.872287 -141.375034 -170.961903 -69.950495 9472 9472 
1.246665 22.993531 -41.381129 -75.186596 12.523496 8.775127 74.249545 -3.220637 37.381665 211.142480 -38.899741 14.330951 -18.498302 -41.701084 -166.937262 3.181292 9473 9473 
-37.640390 7.851812 -59.839379 -70.934039 69.065877 15.070614 56.673558 19.751947 96.923865 -120.634413 -19.976101 -21.723574 38.458577 4.762745 -4.375102 26.564003 9474 9474 
-23.019262 -0.063467 -19.896868 -32.955452 25.596602 24.766659 24.623538 0.948251 -9.450644 383.708922 -84.203239 -70.838456 4.253194 -24.664950 -178.550888 -20.253939 9475 9475 
-101.557892 -65.101486 -98.918818 15.217067 -55.472079 114.617820 109.227010 81.988377 92.791751 -81.215403 -101.567087 34.591993 9.188847 -52.354851 -271.562248 370.126996 9476 9476 
-52.747452 -238.816340 41.395609 -167.985078 -144.947967 -108.640728 244.015723 427.726232 656.051990 -863.212552 56.961599 -18.698143 5.905930 -117.487275 -313.828045 594.306494 9477 9477 
4.193556 -67.271467 80.194852 -164.053820 1.683283 -189.999521 156.531363 178.721752 344.408798 -161.082704 99.562434 -181.761782 -7.469227 -52.087910 -96.418429 54.848819 9478 9478 
-26.732434 178.164684 -48.792523 160.882208 91.554568 128.744122 -74.441649 -409.378976 -371.560526 -6.544599 52.792631 135.526116 102.604449 167.078368 127.907780 -207.804219 9479 9479 
43.252702 -7.393758 66.939149 59.826248 61.862947 41.203051 -56.191702 -209.498638 -127.641051 200.286464 4.218491 73.266863 -2.518117 12.839496 148.326890 -308.779037 9480 9480 
-0.385225 82.348313 1.525684 87.831085 63.742341 65.180844 -55.480844 -244.762198 -224.202705 153.883080 16.312932 62.318729 27.953836 65.166203 114.587537 -216.019611 9481 9481 
69.893160 26.804897 57.769630 176.433205 93.816515 163.873490 -175.672427 -412.918470 -352.883660 159.991117 -21.055530 247.451958 49.337543 93.363820 305.678110 -481.883358 9482 9482 
177.750974 2.478420 125.008791 179.769991 275.449295 158.542683 -324.459239 -594.540914 -412.945113 115.746847 8.313478 307.791441 96.437479 191.781472 242.662164 -549.787767 9483 9483 
-6.877756 18.883616 14.399254 128.042518 23.304434 93.752488 -102.808987 -168.695567 -62.334068 -57.027640 39.640342 99.712051 7.262664 66.628273 -64.938309 -28.943313 9484 9484 
-91.450894 17.722025 -11.973333 -16.194989 -171.271297 -43.322773 112.672961 203.818299 186.740608 -209.891325 28.329650 -92.270920 -47.796397 -80.177484 102.431898 112.633969 9485 9485 
42.344807 77.177688 15.330126 -63.775936 -31.091992 -76.619533 4.842338 31.792502 55.064038 -563.111589 75.848137 -1.581796 69.891805 80.405431 96.590005 186.893970 9486 9486 
-40.251352 -22.993126 -21.066979 -11.253034 -102.011984 -45.373533 82.482676 160.467330 126.075474 -287.558352 26.810273 -34.959657 5.925906 -13.167005 66.121520 110.751841 9487 9487 
-32.088134 -24.243880 -37.085841 61.846974 -36.295456 -10.933949 59.761598 19.038688 -20.419329 -327.148205 50.632113 26.567819 82.349491 67.231900 55.041092 65.745121 9488 9488 
-24.870339 -48.014356 -37.550661 32.193029 -42.600203 -27.303094 55.198168 92.947456 15.260774 73.349187 23.488000 -10.673213 -35.018969 -55.731425 -25.792217 15.117862 9489 9489 
-54.465358 0.667063 -32.783782 20.561262 -54.551985 -0.734070 21.777478 99.529391 -9.098861 166.515680 11.845520 -42.683202 -64.075372 -68.025719 -12.882570 18.404525 9490 9490 
-30.853062 7.906197 22.413715 -15.237935 -27.242741 -27.353038 -11.148549 81.515414 -3.837782 304.334405 -1.484736 -115.995295 -81.689512 -82.069126 -39.378608 20.120653 9491 9491 
-33.602715 40.899296 0.121866 -45.691603 -54.203099 -13.774631 12.151160 94.099725 2.807854 244.127643 -22.499147 -34.059658 -85.484183 -96.560459 -9.258879 0.926829 9492 9492 
17.392680 18.941446 -20.539778 -99.874133 7.283481 0.082103 1.876306 74.837895 -16.355958 198.074681 -55.794762 -30.730859 -52.714546 -53.665176 -11.417689 22.604309 9493 9493 
-6.002842 -14.659157 -16.718477 -70.056742 -32.591652 5.251915 2.100160 132.676794 10.797463 261.755873 -70.340041 -74.765549 -65.508051 -70.235059 -2.458643 10.754007 9494 9494 
18.266495 11.890581 -0.599657 -93.842537 -13.932471 5.618710 -33.263756 105.862636 20.008032 -58.344454 -27.447202 21.430384 0.600199 10.773169 -17.993895 50.973767 9495 9495 
-32.697601 -22.793836 -79.792788 -33.044440 -136.714151 114.023975 31.395294 159.623548 163.077940 -354.334831 32.110960 -238.875898 21.795530 22.077069 -74.455457 428.604687 9496 9496 
-38.882573 -243.500612 12.347244 167.067086 -263.860697 -239.801285 156.701826 449.929010 582.248831 -622.318400 51.966301 -285.635625 -149.542510 -198.538722 47.949276 573.870849 9497 9497 
-4.395453 -74.529250 68.576207 -111.854001 -48.282071 -282.798383 151.284600 301.998351 288.477706 82.610538 -21.618229 -45.702904 -122.553747 -143.968423 -133.586886 96.341945 9498 9498 
10.258808 189.883606 1.423663 -178.293453 126.774856 195.272000 -67.634897 -277.684582 -329.496930 201.705572 -4.433659 114.542718 138.611418 188.805581 -133.015749 -176.718953 9499 9499 
53.349217 -17.944964 72.188466 44.016639 75.969886 28.139264 -90.359598 -165.358911 -131.925392 62.796770 -38.555156 204.633836 8.186400 24.069673 165.928486 -295.134616 9500 9500 
20.097637 83.120931 19.297799 -76.661283 84.124128 89.245851 -53.213193 -166.011871 -149.945638 -136.804375 21.100782 157.416828 102.192914 129.469779 14.296278 -137.726568 9501 9501 
64.935741 21.551730 52.399920 64.449670 106.092452 128.708373 -143.361777 -294.776108 -273.479496 154.825672 -39.621056 215.774274 53.221813 82.287139 171.025620 -364.033965 9502 9502 
183.344649 6.462654 118.520427 -43.729713 268.249002 1.136432 -168.228502 -365.754949 -291.553289 281.977346 3.864891 161.816642 101.914899 151.727010 282.019496 -691.766996 9503 9503 
40.202891 -33.277330 -22.210942 -38.959058 133.346222 87.946196 -28.319292 -138.728686 -145.747255 86.401200 -68.999856 37.861328 27.962784 48.034466 242.654228 -228.166894 9504 9504 
-89.876490 -63.745696 -93.081649 45.961819 -56.416926 111.743289 85.157992 60.257659 -13.703777 214.042951 -180.546222 40.435456 -83.518031 -110.101844 -49.807079 183.198547 9505 9505 
12.870114 111.168995 4.496591 -152.133329 51.393941 -5.715854 36.030271 -58.110728 103.282236 -504.028978 75.986074 8.842105 158.883524 163.535421 -196.666867 190.166485 9506 9506 
-69.190341 65.412584 -24.075168 -3.349494 -59.058211 11.882755 29.907238 48.470635 160.654866 -471.745072 28.952355 21.609914 40.618173 20.704319 -11.722299 210.927744 9507 9507 
-60.197267 74.286521 9.590911 18.421240 -15.349163 16.794936 -17.008033 -26.539144 22.720696 -86.866473 43.546087 -46.662857 71.727321 62.946110 -185.979493 118.568609 9508 9508 
-48.815020 9.058660 81.746989 96.937838 -57.077565 -56.340974 -29.813713 4.303784 45.472366 125.399374 17.334264 -58.991698 -32.758060 -50.994895 -106.498430 61.037078 9509 9509 
-43.047407 21.862756 77.989834 70.377820 -72.018702 -26.441879 -46.405351 17.682928 12.221996 223.574165 -11.216408 -34.079990 -62.905193 -74.888770 -133.803079 81.097279 9510 9510 
7.076528 -16.047397 27.833151 47.061435 -40.051426 -61.954506 -36.669642 72.751858 34.615457 -5.621574 39.004516 46.061091 -33.522911 -35.377549 -74.078056 28.919027 9511 9511 
4.698991 -62.503131 -87.574661 50.357008 -61.647074 -6.620561 25.315678 137.973749 -8.403327 104.851744 11.345361 3.116224 -63.265163 -64.418384 -31.681062 48.454607 9512 9512 
52.723550 -62.073032 -117.930072 -25.678592 -12.322699 -14.278531 29.283355 150.276020 -4.168879 55.999181 40.977738 -87.567657 -6.271409 -1.518740 -22.001831 24.551598 9513 9513 
32.811113 -49.953452 -105.050703 -29.272113 -43.776020 4.472519 16.855510 173.913145 -50.517307 360.643487 -30.555246 -108.974969 -72.097905 -74.471965 -24.599443 0.573349 9514 9514 
37.952646 -0.032673 -7.730735 -33.406240 -43.429832 -36.917722 -25.547149 109.111706 -48.329220 394.129337 9.338918 -88.515295 -63.446964 -61.175443 -99.886749 -42.114584 9515 9515 
-48.266928 -13.539157 -28.508714 112.215555 -200.722477 59.133648 -9.589415 129.277487 110.026123 -12.284540 57.290485 -254.558528 -64.114818 -69.370170 -113.174808 346.186257 9516 9516 
-257.659047 74.315618 -139.029741 -96.153212 -6.255291 -76.010783 64.929824 435.862633 635.081709 -416.531718 -38.813911 -56.816581 -234.847997 -310.593913 -330.113217 752.635627 9517 9517 
-103.015872 40.617816 -32.807786 -213.330900 52.835199 -278.413689 170.679300 363.435932 431.956302 -311.814807 8.682878 61.814378 -103.316077 -151.684295 -279.359452 343.721073 9518 9518 
161.013685 -63.062368 93.345220 88.492265 -69.983331 25.670847 24.243576 -259.719895 -370.790943 250.803269 56.359035 -93.401165 154.626986 214.447862 105.042130 -317.087175 9519 9519 
55.808165 -17.765188 46.315630 103.567786 122.901636 55.606074 -111.752010 -254.682092 -208.699105 187.860354 -59.430231 256.250124 -11.133744 7.502291 234.320543 -406.670231 9520 9520 
87.364248 -32.527953 54.437522 59.490578 6.260370 16.041111 -8.122233 -182.943644 -187.484571 -66.217330 39.136266 63.040017 101.749657 131.469846 143.661471 -225.355356 9521 9521 
93.007560 -26.137172 62.173147 135.661481 87.002556 102.749493 -119.257147 -335.199918 -266.590178 -104.272659 10.038109 224.300900 102.160373 131.997242 312.850272 -410.484057 9522 9522 
188.509483 14.099387 138.413000 25.421797 241.403378 -20.627401 -165.055582 -422.164061 -275.815656 -7.625086 62.813650 187.949438 162.959120 199.444211 418.514162 -748.239838 9523 9523 
53.034956 -19.487011 47.643840 86.359208 51.674166 17.949068 -50.993385 -186.180842 -123.610730 -294.012143 31.561863 70.498610 62.122780 79.125177 442.262629 -267.948185 9524 9524 
-118.495140 -24.422978 -71.136882 82.062310 -77.717507 84.292933 54.466380 70.950883 -18.776420 111.959798 -122.972308 108.735864 -117.549071 -139.738798 -24.512781 202.853716 9525 9525 
47.515032 -9.899509 33.752719 -100.513380 14.144410 -24.182409 59.802587 -20.619449 -47.188132 347.097524 -4.978691 -145.296643 64.805418 70.671366 -265.113025 -19.997819 9526 9526 
-36.639906 -19.145012 -15.724582 -69.924091 -16.587627 31.533433 69.516761 56.971024 129.494128 -340.609316 -24.368279 64.809542 10.339485 -12.265841 -10.758827 183.359108 9527 9527 
31.702104 -6.590220 30.915802 -180.895594 -15.635219 -1.379495 108.046412 33.836209 137.082957 -670.397874 72.560556 97.439797 144.246290 123.320733 -90.329744 186.077286 9528 9528 
2.903905 -0.843589 15.208775 -129.187189 -1.331849 -16.119218 55.841296 73.527870 103.013820 -207.683551 9.270558 66.295631 18.957946 -12.467143 -75.143510 97.756249 9529 9529 
-2.995496 -6.447886 -46.375251 -15.506017 -69.428692 -13.155273 45.915993 107.992623 56.789544 32.467647 16.478609 -73.023833 -29.287959 -33.993057 -104.745913 135.314961 9530 9530 
3.712567 -6.388930 -80.965872 76.391959 -27.890715 -40.942906 18.524700 57.559197 117.131492 -271.945450 109.755750 -153.851344 50.494456 53.793126 -25.239889 119.861859 9531 9531 
-46.599775 -42.568732 -95.573173 215.146367 -42.311239 -5.994269 0.919407 16.981412 -1.448500 307.072856 11.174342 -235.728493 -42.428743 -53.441499 -67.533667 82.333704 9532 9532 
-18.998729 -16.785258 -45.538017 155.220907 -6.830612 -22.228361 -24.058879 -20.781051 -63.773942 514.264189 -34.372207 -85.437846 -84.959800 -85.125248 -120.373654 -40.221492 9533 9533 
-68.962244 16.671371 -24.416791 134.684661 -25.387024 10.189466 -31.537856 -11.241582 -3.981554 139.200258 -11.618300 29.228860 -75.811645 -81.901825 -27.977603 32.861809 9534 9534 
-63.268003 54.081316 22.132990 45.601199 1.961077 -0.152847 -27.173653 -33.182078 -45.045748 414.294154 -13.706723 -73.636796 -60.054702 -63.906676 -110.327499 -47.616010 9535 9535 
-17.145480 142.926103 72.030320 -212.011312 -5.932130 -185.566386 110.372359 95.326525 52.437973 -20.892711 -6.920284 -256.401072 -62.483214 -62.688710 89.630720 267.317297 9536 9536 
-91.805305 -221.291729 40.101628 -65.463500 -277.517128 -4.629426 204.747500 415.857962 549.327920 -125.701757 -27.396624 -489.442107 -210.984320 -248.015053 -61.610464 613.822405 9537 9537 
-122.044439 -149.243486 -69.961114 -25.725517 -175.508580 31.960475 124.558101 385.964561 427.714972 -4.526022 -34.204052 -209.636355 -102.187269 -116.738207 -358.863506 398.440439 9538 9538 
70.089549 214.373353 6.620205 -142.117911 188.701563 -106.244102 -74.607163 -156.815495 -322.362776 -52.161111 -9.404991 131.635165 172.308383 230.038209 63.548230 -213.601109 9539 9539 
32.247244 -56.235660 16.508749 153.290115 76.082850 200.939809 -193.441846 -229.391261 -249.568170 415.540942 -122.554961 196.090381 -19.271294 8.041805 204.886514 -433.165216 9540 9540 
32.953181 81.527317 -2.032054 -25.108994 101.078000 12.749914 -81.549541 -119.617823 -243.070540 379.335706 -82.192819 76.500562 31.493328 62.419213 20.105202 -244.590652 9541 9541 
77.569725 25.545667 41.284538 102.495913 137.520352 141.306441 -192.903089 -332.819546 -350.764597 288.827210 -96.652590 240.914928 54.878975 86.764925 266.743364 -490.712215 9542 9542 
194.588071 -4.643183 125.171428 190.584067 271.336768 191.642285 -332.423227 -636.256210 -390.071450 119.896563 -94.713318 371.901197 143.702996 173.228842 201.080836 -525.025666 9543 9543 
45.242095 30.620108 73.187915 175.935605 73.223462 57.930517 -154.767341 -301.372362 -112.359890 -1.697599 31.210426 166.349508 39.009206 30.476092 50.743180 -203.730924 9544 9544 
-131.630920 -2.163674 -43.835868 78.881874 -197.828089 -23.305533 83.912077 235.970133 190.139643 -333.273434 170.765124 59.743593 -57.244062 -92.885157 -23.572546 86.326838 9545 9545 
21.772176 76.470871 14.141114 -162.960646 23.716160 -178.288339 91.749127 113.399537 20.441096 -252.594272 146.292563 39.442189 71.361488 58.310446 -171.899756 88.646246 9546 9546 
-115.551748 -31.799481 -55.406187 -2.947236 -82.091947 3.596188 143.794652 140.405759 153.214123 -387.167225 106.822536 34.613744 19.191605 -24.193105 -2.345659 99.863981 9547 9547 
-54.813858 61.031566 -23.791783 -119.754997 28.050303 -56.327411 96.128998 69.477181 84.236033 -511.421026 124.370765 7.366875 95.521082 69.641531 5.732771 124.551968 9548 9548 
-30.065362 -2.474296 -33.127393 -44.490013 -8.103879 29.772619 -21.209475 109.697798 84.429410 -409.606959 16.388135 -15.893643 48.960387 52.275576 96.474828 126.972268 9549 9549 
-7.736251 6.663357 -77.376162 -120.396612 -8.688318 2.067001 -4.042538 209.509522 56.724264 -436.850654 -59.518501 -37.833688 81.059198 113.658656 116.203168 166.557556 9550 9550 
60.385894 -14.576135 -44.417702 -157.893873 24.272091 7.330234 -62.567479 187.466970 19.046627 51.063392 -129.921706 -73.440623 -12.222419 29.387294 12.692559 103.394877 9551 9551 
36.139527 -5.336231 2.339074 -120.638285 -30.136327 -0.850457 -46.842152 165.324851 92.059237 -164.181392 -66.997936 -41.501047 -31.387258 8.161993 52.776872 151.069532 9552 9552 
40.829538 13.617247 51.140525 -83.409564 7.548749 -40.178094 -6.995138 17.446737 -52.503638 435.399661 -83.205755 -71.536770 -102.055030 -77.142624 -46.642464 -2.313380 9553 9553 
6.554363 -26.942474 -19.537949 -40.132623 -32.904919 -9.427011 55.722522 66.668091 -37.125738 616.492698 -99.468846 -114.579423 -168.569616 -153.922057 -13.465648 -29.361369 9554 9554 
27.461601 -66.766469 -59.264231 -93.329914 60.945490 8.483601 79.117634 43.352288 -11.435554 87.350059 -93.315449 -100.528278 -18.632235 5.766102 84.345981 46.449374 9555 9555 
-5.520398 -45.520937 -30.272985 -150.826151 65.294109 -31.465165 110.852961 87.458566 2.433634 437.871160 -86.999009 -196.317940 12.395092 27.463577 -324.766788 127.920274 9556 9556 
-167.400628 24.581468 -89.311476 -155.961467 -171.244986 -86.565722 278.620159 367.282651 271.462846 60.667476 -21.720936 -220.793111 -57.833972 -78.085258 -228.419789 274.722744 9557 9557 
-128.865784 8.660271 -68.002473 10.019837 -149.190021 -35.985147 177.481953 185.881364 167.311907 284.818251 -36.891108 -160.018433 -132.016697 -177.229594 -12.025758 66.051432 9558 9558 
94.846735 46.849391 63.743399 33.664302 130.326116 -26.249255 -80.915390 -262.265299 -122.099331 139.801903 50.509763 70.813912 57.251896 37.594955 -112.702171 -121.170926 9559 9559 
-1.718683 2.112847 5.359545 121.732177 2.290767 73.012954 -40.054520 -162.735088 -34.223615 -216.725821 40.897431 151.731826 24.531540 1.462965 205.415649 -173.089975 9560 9560 
-12.221953 -24.893303 -14.214573 17.685978 142.440177 200.162427 -51.409536 -257.549217 -72.123676 80.696755 31.505842 64.618700 14.992900 -4.801168 1.750408 -116.639762 9817 9561 
58.762157 -36.142434 35.006820 219.445348 142.950690 262.295884 -209.878492 -472.439972 -271.952736 -22.456529 12.388573 270.483019 77.253608 76.434341 277.291137 -419.441414 9818 9562 
68.431803 29.516356 64.163744 181.178812 -38.774167 -64.341724 -91.074493 -149.100331 -549.553163 -98.729509 19.235342 357.181367 185.920209 263.111773 404.738421 -581.904440 9819 9563 
-3.566642 29.328165 12.576170 -80.524752 -18.852371 -115.983903 80.435330 96.588003 -63.787363 -62.299980 31.501457 160.625443 6.630956 49.830291 35.280607 -157.781411 9820 9564 
13.840972 10.519651 25.920067 87.887858 -50.085094 -45.816959 -16.533403 -25.733091 288.526388 195.672114 10.874192 -176.332164 -164.545886 -214.281007 -101.116514 161.202878 9821 9565 
28.704146 25.972700 35.034658 -1.149117 -4.880051 -77.587711 7.946054 -14.040679 65.963050 -240.170935 142.940981 -187.533938 83.876591 66.186240 -211.562246 280.300256 9822 9566 
232.584373 -67.200185 120.461098 248.122168 -182.939746 185.328264 -65.859655 -470.496316 193.027930 -215.523807 107.673089 28.743375 -56.905890 -102.232371 -109.908578 155.126253 9823 9567 
277.412983 -45.962224 155.183225 304.503395 -212.855716 203.119444 -227.068001 -454.333106 109.869567 -212.574781 71.371474 -7.802402 6.704238 -28.351874 -134.855081 195.638860 9824 9568 
-164.901539 29.556440 -34.977637 -79.132875 45.064047 -96.859612 13.477380 287.773796 137.594772 -228.229136 2.819839 -25.409277 15.667146 -25.945081 -39.269840 162.771577 9825 9569 
-130.383469 12.921535 -5.020041 -148.268125 99.872248 -188.790876 150.965002 208.703726 146.975059 -238.754331 8.283171 -23.865529 21.608038 -22.336987 -29.836866 137.927445 9826 9570 
-82.528485 -2.224811 -10.457774 -68.582028 31.025529 -84.725943 27.604026 189.889486 99.501792 -330.397869 36.987306 21.853196 38.331188 14.177891 0.310882 119.235615 9827 9571 
-88.972977 -9.919844 -36.925033 -50.167858 53.659258 -121.431785 64.020854 189.737385 65.186767 22.818683 -12.908772 54.586630 -47.605574 -83.861707 -27.778657 29.562630 9828 9572 
-55.500305 26.985687 -32.498314 -5.435107 22.872077 -73.962583 31.601988 85.936557 -2.302404 52.563699 -20.868754 10.668782 -11.883943 -33.067844 -45.887079 50.777543 9829 9573 
-53.483525 50.529213 -54.044349 -64.276102 22.414792 -82.840971 43.794700 137.906240 10.054520 347.621600 -99.454816 -44.094745 -77.395816 -84.406008 -48.051393 -4.273341 10086 9574 
-8.844311 -1.570924 -53.853780 -137.524888 21.245021 -61.748406 83.062051 159.235236 15.557670 129.835192 -42.308422 -62.573258 -27.751499 -14.925239 -28.424485 30.590042 10087 9575 
-44.008079 -9.430208 -41.780694 -61.962009 36.282770 -26.181819 13.363064 133.716975 -14.438163 220.510589 -54.735863 -82.252234 -83.042166 -78.737410 168.429409 -75.734161 10088 9576 
-18.094462 -10.705977 -18.542626 -56.786082 25.419430 -46.405476 22.465089 102.650104 -172.423610 169.790187 -46.291538 60.659507 -43.427262 -8.388498 351.971550 -311.890335 10089 9577 
-11.570222 -0.220730 -34.755066 -18.135703 -5.505467 -23.375991 -10.359945 103.923124 -76.551730 -46.838255 43.654941 101.608968 25.531841 51.982081 50.585699 -149.973545 10090 9578 
-8.458083 0.175346 -16.232920 -7.915910 -2.163445 -32.451868 6.705506 60.341375 42.244994 139.037121 23.065236 -112.370215 10.618533 8.477932 -258.705398 147.631796 10091 9579 
-25.578595 1.622256 7.489742 14.392323 -14.951083 -7.114317 -19.500621 43.640294 -3.583375 189.667162 0.243573 -65.994857 -13.216069 -3.169328 -134.052021 30.104915 10092 9580 
-6.431150 9.393471 12.849617 -19.727834 -0.491684 3.679549 -10.506777 11.234808 -6.132782 244.415754 -5.034041 -76.943731 -15.530342 -11.132754 -177.767985 48.125882 10093 9581 
8.809496 12.964942 1.214207 -13.069655 -9.312853 18.727641 -20.305949 0.972172 -255.338335 80.412713 -15.020051 149.151804 73.353221 100.196153 157.797320 -290.552826 10094 9582 
-3.380367 30.227957 4.418111 54.700101 -13.954160 3.824812 -28.207179 -47.629275 -657.360844 25.203807 81.523362 269.988258 315.635810 -29.766933 348.211936 -353.435397 10095 9583 
-11.843106 27.888943 7.031976 55.444636 -23.834886 13.573791 -2.287124 -65.974230 -18.647878 -360.598629 76.904492 306.339500 67.976010 -49.052654 59.009121 -81.929962 10096 9584 
30.291232 102.625527 63.143344 -188.133375 -23.853801 -199.357896 121.677559 93.607410 411.209342 -111.558539 -64.641981 -10.849148 -220.485456 84.880705 -166.377421 77.822498 10097 9585 
41.382458 -168.706674 110.771448 -293.880566 -161.557040 -230.688091 225.114230 477.564235 124.951900 -234.118419 44.855312 -319.436561 72.622172 51.239352 -200.797353 460.683597 10098 9586 
-38.349457 -151.056254 -29.811638 9.643335 -118.602413 61.466708 56.728593 209.981125 302.397783 -401.522225 6.421377 2.310937 -52.985364 97.231641 -153.682047 199.827897 10099 9587 
10.327391 140.079645 -60.869735 111.206447 80.624707 142.223464 -98.529616 -325.062303 204.849350 -357.974745 14.275703 -151.547557 23.652964 89.052483 -127.816026 305.507828 10100 9588 
40.343397 -63.559473 8.828838 153.836052 30.672691 196.001609 -137.519130 -228.603984 207.536436 -564.729692 94.484632 -38.077540 35.874826 87.920285 -50.406457 227.397511 10101 9589 
14.588839 39.654086 -29.534885 110.451935 44.709107 136.447455 -89.657063 -226.659474 106.182461 70.501871 34.175025 -92.812770 -79.290755 15.965268 -97.034395 42.313294 10102 9590 
71.606740 2.874363 24.720636 169.867828 87.664086 202.432091 -179.074383 -380.091362 42.508785 -20.158744 36.548278 -112.986149 -10.402516 -5.871377 -25.153577 95.515300 10103 9591 
-30.151843 162.002656 302.464887 99.799795 74.886229 122.504662 -190.408763 -541.097622 62.533064 31.400374 -21.044238 -47.297974 -56.026169 22.805730 27.092566 -19.463353 10104 9592 
-89.448570 23.672208 9.849626 188.532995 -17.435301 190.657398 -69.085456 -236.742902 -50.173270 179.704692 -11.905704 -145.843434 -0.456224 -16.493156 19.654971 25.512127 10105 9593 
65.706122 -194.304258 -278.872800 182.946840 -27.734650 155.929814 19.543726 76.785206 -54.630213 494.519819 -81.805322 -87.863240 -78.710448 -42.740759 -36.500731 -112.269107 10106 9594 
61.747699 76.946586 14.891801 -164.295052 24.331640 -142.204673 79.730204 48.851794 -100.164452 447.756828 -55.768473 -109.875242 -27.071350 -67.879014 -41.177539 -45.820759 10107 9595 
27.342679 -110.701994 -155.272335 -35.651144 -25.302381 58.043232 47.920811 193.621132 -64.584768 113.452507 -41.095412 129.689388 -41.714899 -45.441152 136.219675 -186.525338 10108 9596 
32.720534 15.403371 -59.724943 -138.876668 -20.050541 -55.549275 74.835254 151.242268 -446.809314 238.776827 -60.940852 235.290597 62.273767 79.685096 310.546377 -418.822498 10109 9597 
1.245221 -27.884276 -2.260831 -42.329767 -16.170452 -10.071926 7.757737 89.714295 -294.118292 -31.583164 -11.352657 200.176773 90.302856 102.737282 224.981906 -281.144706 10110 9598 
-0.871023 -17.499645 11.344330 74.686927 -2.013959 -16.713065 -75.857134 26.923569 148.181296 221.792865 -46.313016 -86.566070 -70.502720 -108.389284 -146.745726 88.542654 10111 9599 
-8.345627 14.734930 99.431090 67.149812 -37.589374 -80.138290 -62.888608 7.646068 41.923189 235.255727 -22.076804 -135.552510 -19.836222 -54.386103 -188.645428 143.318152 10112 9600 
2.777049 -47.770349 -2.303080 81.091380 -7.563617 6.327411 -14.012627 -18.546168 79.381299 85.607655 -20.612129 -40.357955 -28.214669 -49.145224 -88.140291 61.481313 10113 9601 
-3.527503 6.890944 9.054393 -22.912400 67.377297 -9.656820 7.813033 -55.038944 -178.607190 118.653283 -32.085398 98.003826 46.648656 23.771080 122.309746 -198.694001 10114 9602 
3.390156 -13.659479 -95.625572 -30.897811 63.416277 77.656892 -2.936931 -1.343532 -288.220575 210.153442 -39.305896 197.407454 237.786766 -143.810606 246.123725 -420.134311 10115 9603 
16.012791 62.534013 -39.506286 -114.516194 26.685746 6.604976 29.392967 12.791986 86.457603 41.926956 1.727324 -25.956490 47.467145 -120.219421 217.421775 -248.824891 10116 9604 
52.407698 69.116759 -14.015578 -270.327607 2.961998 -163.590078 149.637736 173.809072 171.476915 -515.120771 19.934718 16.627939 -113.892636 194.229403 63.229066 163.515366 10117 9605 
33.211128 -185.885485 121.753510 -246.030146 -104.152096 -212.487232 165.838964 427.751358 166.061645 -542.558457 42.109965 21.376613 57.116384 23.424009 -251.422927 483.892769 10118 9606 
-63.569696 -142.488051 27.590191 27.969216 -103.866640 -37.166763 58.498670 233.033073 161.402388 -410.792287 87.136801 -26.819802 -37.749625 110.668570 -80.298502 196.452457 10119 9607 
-30.449031 184.238891 -38.822759 53.217196 57.016521 -1.496711 -27.641572 -196.062534 171.315652 -496.722503 98.619581 -91.537960 20.687746 68.058679 -58.859013 288.437819 10120 9608 
8.085229 -41.038871 50.329241 142.369703 28.198538 93.237382 -110.606661 -170.574562 115.922089 -109.614371 65.653291 -174.629220 3.021998 17.086699 -80.171484 162.730998 10121 9609 
-18.256635 66.359093 -15.036905 76.470214 29.134121 33.158526 -41.136564 -130.691851 67.183442 -201.141254 29.500655 55.883420 -13.274918 27.819004 -47.473818 81.503469 10122 9610 
28.736144 31.649002 48.720460 121.037007 64.460810 84.888277 -120.554080 -258.937621 45.592618 -354.357114 26.580162 206.966048 46.751789 -7.886100 -73.955547 110.308143 10123 9611 
228.178663 33.486977 146.462168 256.508055 -144.552801 207.474481 -252.835551 -474.721993 -19.160623 23.462863 1.517083 86.979892 -24.235570 1.726225 -23.901929 -46.387941 10124 9612 
1.061557 -9.731640 4.306696 253.026568 -75.031240 161.001003 -125.506220 -209.126724 -9.661212 196.255286 -15.726892 -49.096665 0.904368 -59.708402 -73.708343 10.741861 10125 9613 
-211.090115 -67.176774 -86.450812 14.861757 168.790255 -11.225774 60.537146 131.754317 -75.668728 718.074369 -87.201321 -150.482013 -106.426026 -85.939352 -89.914937 -122.441991 10126 9614 
8.285814 118.946231 95.042132 -182.290641 33.468589 -121.289746 60.248865 -12.411245 -28.435352 501.205791 -43.458111 -130.941065 -71.234690 -110.489699 -97.865931 -18.780942 10127 9615 
-117.506564 -39.014866 13.414719 -12.004008 47.787006 -21.322678 40.035174 88.611217 -92.282653 436.509569 -82.810826 -110.200735 -159.663274 -136.196846 287.371637 -142.726872 10128 9616 
-32.438741 55.028423 24.908681 -73.119373 14.953963 -108.799963 24.241767 95.225243 -331.924898 559.164659 -127.988248 265.344991 -95.261391 -53.068941 309.832282 -526.098454 10129 9617 
7.606785 -16.241742 -65.687413 -48.941397 -9.464611 -63.024012 41.234501 154.517889 -160.268225 -25.967541 6.631727 262.616666 55.730962 97.192936 -23.452076 -212.484450 10130 9618 
-20.762014 -10.220370 -129.436903 -85.955356 21.361764 -71.928372 117.218753 179.722499 81.623297 73.033899 -15.948997 -210.594982 -49.077244 -42.296350 -114.576255 277.836632 10131 9619 
16.373717 1.101941 -46.103165 -59.708491 -25.081656 -59.951484 67.048045 106.321092 14.183515 267.841429 -27.216712 -63.002032 -30.505250 -31.033379 -215.768489 85.500918 10132 9620 
-20.492117 -6.386773 -56.982986 -63.509888 11.970685 -44.738619 61.120397 119.019300 32.854018 80.820692 -7.746637 -95.370310 -21.528035 -11.634105 -101.854479 124.458856 10133 9621 
43.496628 27.353042 -0.923544 -128.308199 -31.439883 -49.352133 48.722325 90.451765 -140.218525 80.955100 -19.317350 52.484399 37.589057 34.659295 65.701998 -111.853975 10134 9622 
-7.589506 -15.989588 -52.722274 -76.996293 -1.835593 -15.563645 62.917759 107.779139 -586.198922 80.218699 68.443014 -53.301239 280.009837 379.561379 299.922644 -468.655412 10135 9623 
12.128850 5.167217 -38.733794 -53.802438 -5.957463 -18.159600 60.776502 38.580727 -77.180442 -315.956296 67.417030 345.354682 92.678865 133.563884 64.697007 -310.574731 10136 9624 
2.009142 48.008577 11.641509 -155.446641 5.990080 -145.629612 116.537726 116.889220 410.345111 -487.253029 13.707193 343.029336 -128.637168 -176.827681 -138.070102 163.706341 10137 9625 
8.152396 -169.337086 133.404354 -182.538566 -105.260532 -169.837329 145.531632 339.885131 140.208612 -612.054752 117.867461 -311.728031 128.294052 93.274399 18.877489 425.260770 10138 9626 
-81.563182 -111.298819 24.855822 -6.632381 -104.142719 -33.442428 83.756700 228.467007 289.718412 -661.905471 111.775215 170.685706 38.311858 -9.659863 -120.496433 181.570575 10139 9627 
-40.959780 195.645395 -48.134214 64.886369 53.470428 14.424063 -41.534808 -197.797453 134.047312 9.667355 34.095294 -178.804584 -33.030025 -96.551105 -72.016607 202.592361 10140 9628 
17.928733 -34.975071 44.829555 163.836828 33.778478 141.247431 -143.530609 -223.115345 154.457443 -123.344057 58.569389 -21.947645 -23.671632 -80.717185 -79.705316 116.359003 10141 9629 
-21.493204 74.590162 -16.861558 85.317216 32.775405 54.649528 -60.308122 -148.669426 182.636866 -226.616639 42.134260 -9.692576 -4.072075 -68.894757 -55.174851 139.679772 10142 9630 
43.887115 28.469113 39.632515 143.579861 60.231383 126.188167 -147.484474 -294.503680 79.832141 -223.845168 12.524587 -122.582876 63.673148 32.475339 -8.467807 166.390636 10143 9631 
-182.419656 99.615619 225.027916 325.441714 -81.434360 308.216324 -225.037635 -469.409921 153.061995 -545.532855 -15.945210 80.528839 44.766769 46.695737 63.073440 173.351286 10144 9632 
-143.666391 10.570977 25.315952 277.630049 -80.342310 266.761619 -155.319051 -200.950845 -116.207204 650.295986 -197.086089 -231.366893 -70.893158 -39.572310 4.411991 0.417677 10145 9633 
124.665373 -124.024978 -150.154337 -52.277238 80.289103 -48.642107 16.559801 153.584382 -80.988119 787.722550 -213.337686 -117.779215 -142.067532 -127.261793 -18.355320 -87.932885 10146 9634 
34.237821 90.950438 52.639660 -149.007071 10.051964 -140.853166 79.248235 22.732120 -35.905577 69.907842 -37.710551 -87.446180 -19.384251 -17.699503 97.718088 30.520131 10147 9635 
80.414256 -72.616517 -92.361493 -27.469638 36.492625 -28.134458 30.941031 72.734194 -20.671558 279.304695 14.741419 -4.535268 -79.966105 -82.174389 -82.704024 -23.994770 10148 9636 
69.332065 28.029222 -49.926230 -58.664165 22.825079 -105.898425 48.225660 46.076795 44.129034 279.395778 62.095490 -235.342829 -39.030839 -72.045334 -254.230028 215.028729 10149 9637 
35.982151 -19.792670 -36.932333 -5.882310 11.920263 -33.346995 16.728298 31.323597 10.769687 152.155258 -11.673497 -99.251526 -14.587285 -29.871843 -64.024173 56.483379 10150 9638 
67.263044 1.248572 -49.004195 -136.817902 48.133953 -39.480116 42.377551 66.279093 -65.653394 -121.046307 -20.844415 136.636258 7.664772 34.355835 208.952594 -180.065344 10151 9639 
32.305159 18.978609 19.707323 -142.096458 31.962155 -3.047959 -4.777585 46.968756 -77.789135 117.599276 -21.941013 17.555683 -1.270586 12.136457 64.176132 -110.466814 10152 9640 
40.206088 3.611970 -14.173689 -59.281725 27.312150 -21.083915 -34.483447 57.892569 -81.639558 155.310418 -43.755617 69.364760 -22.685731 -6.710614 98.496883 -168.380541 10153 9641 
2.300639 30.778761 44.825224 -4.501610 -29.785574 -43.028460 -11.378910 10.789930 -184.753053 130.519226 -24.484151 96.102037 26.810571 46.970696 160.338790 -251.504117 10154 9642 
23.578895 -36.521273 -22.582693 60.960855 -18.485521 -31.828325 -5.989105 30.867166 -474.994697 29.860859 22.594883 424.131343 171.792030 238.287227 202.035805 -613.707450 10155 9643 
-1.364031 -9.715382 14.271624 67.009766 -25.637635 -34.888895 -4.725193 -4.950254 -178.286437 -195.504367 41.353392 458.357775 71.315281 134.452153 170.010986 -501.698783 10156 9644 
27.277981 0.599002 36.503025 -78.686182 10.931446 -98.107177 49.992177 51.489729 230.981247 42.477187 -52.418559 -115.142032 -148.500017 -163.057715 83.721255 121.938635 10157 9645 
-215.214070 -66.460337 -175.818481 121.213440 133.519849 -303.748631 210.681581 295.826649 126.571816 -627.601762 104.911798 -114.388403 70.633441 71.942414 110.130673 257.800022 10158 9646 
-131.378402 -68.700713 -133.331622 61.408882 -16.093511 -108.688927 146.143577 250.640716 209.579938 -537.496361 100.578431 15.852834 16.990322 10.740356 2.026766 181.727713 10159 9647 
176.281318 59.884022 138.213486 -206.167375 -130.532770 154.201113 -65.656809 -126.222983 37.869681 -261.523499 7.807803 -46.497589 48.065496 45.820427 26.538987 141.918694 10160 9648 
2.915971 -41.445124 -4.193028 114.881108 24.741923 110.536869 -80.922384 -126.515334 5.100277 -118.946589 2.710898 28.162854 28.711033 28.213517 -28.721442 54.769452 10161 9649 
79.627716 11.796668 55.271464 -60.628455 -57.529116 107.778261 -51.720152 -84.596384 -0.551458 225.310187 8.399134 -104.693570 -50.607587 -61.426847 -43.950000 27.520142 10162 9650 
62.127187 0.528299 59.800978 55.357573 12.852716 137.534608 -111.441775 -216.759586 -2.040518 -17.122578 47.814565 -91.576271 25.159626 12.205123 -25.182664 50.742716 10163 9651 
-144.027917 82.834665 241.819038 235.728690 -109.167472 290.265899 -208.521466 -388.931437 5.359017 409.851156 -52.897669 -120.000703 -59.862101 -86.970559 -90.829053 -4.650087 10164 9652 
-110.300495 -48.627238 45.259219 181.545476 -116.809462 310.969249 -148.392694 -113.644055 13.454503 35.795917 8.201283 -72.318167 32.899807 -2.883675 -39.514715 24.365046 10165 9653 
119.637018 -136.449348 -274.513180 -117.229359 85.870909 -43.240865 76.225775 289.699050 66.204423 27.321949 -22.909313 8.658028 5.241484 -38.007806 -54.122023 7.613258 10166 9654 
95.786795 75.133423 31.639931 -263.160039 -32.683397 -130.907253 102.943730 121.246809 -8.904841 250.934542 -88.637483 -0.352302 -8.757290 -36.070716 -81.884649 -26.327261 10167 9655 
54.589158 -59.661918 -83.074922 -3.198794 50.560642 -39.091989 55.069250 24.808573 136.552396 -239.272612 20.959120 -85.158425 76.179972 52.695256 -187.232951 225.277245 10168 9656 
61.662351 49.388093 54.807946 -98.513184 38.704050 -64.772318 31.670927 -72.947865 474.534827 -75.197363 -2.762454 -148.031201 -80.039837 -129.239840 -337.614423 298.350291 10169 9657 
6.480824 21.109256 19.521056 -8.683149 31.757614 -43.606100 -4.248733 -22.330768 390.116562 -252.002624 53.694027 -154.408316 -61.512205 -80.570835 -263.936323 368.619714 10170 9658 
40.194055 27.195222 13.586702 -48.869092 -16.950258 -66.789213 20.538072 31.094513 -225.053454 -144.605023 75.802224 -49.140152 92.621302 136.812728 49.979804 63.582569 10171 9659 
-32.256907 26.606541 40.387149 -15.132438 -23.399656 -39.238498 33.896461 9.137348 -213.242135 217.807732 -39.530178 173.477887 -20.453415 5.797807 205.502008 -329.359706 10172 9660 
-9.549542 -27.196993 -38.531511 -43.082362 23.549597 0.623610 45.919136 48.268065 -147.390309 -58.796808 31.859718 37.433566 37.689493 66.904549 85.013718 -52.713928 10173 9661 
-28.304979 21.904276 22.275053 -40.017476 -9.989790 -12.494516 15.332577 31.294856 -245.167169 120.416557 -11.020982 125.949756 28.831758 58.215248 173.453727 -250.678894 10174 9662 
-4.434604 -15.911688 -32.919242 4.931275 9.426940 -17.417212 -7.564824 63.889356 -437.896790 -44.402986 8.249414 185.210660 134.907555 192.890032 346.919867 -385.877753 10175 9663 
5.904550 33.127529 16.103758 -45.020339 -9.408672 -30.142711 -12.428461 41.864345 -311.535063 160.501502 -10.618080 249.881769 16.525282 62.062882 290.458288 -457.276580 10176 9664 
37.865575 36.063919 -13.600876 -163.420277 31.019722 -111.577565 57.169773 126.479729 125.050699 206.735412 -61.025195 42.403561 -121.944310 -142.181512 19.792162 -68.830818 10177 9665 
-298.801425 -103.500945 -259.899504 -10.246406 71.242837 42.257546 183.420815 375.527081 76.956812 -528.401719 20.104340 -154.991133 139.307497 135.446298 -14.959880 326.537785 10178 9666 
-209.305129 -76.830720 -129.086872 79.716036 -54.491734 -33.183261 138.816020 284.365660 111.170772 105.440726 -48.404130 35.468550 -61.747766 -67.711819 -98.787741 24.571407 10179 9667 
212.511657 92.507308 233.158646 -47.559342 -78.716909 -147.166842 -62.785418 -201.949099 18.912340 76.324670 37.343636 15.784964 -45.026094 -37.416391 -179.746583 113.823458 10180 9668 
-15.770581 -41.710416 25.210179 212.998103 42.420222 124.344632 -125.306137 -222.186003 -15.561135 145.024471 54.829739 127.690298 -65.400475 -60.970159 -138.906255 -46.706484 10181 9669 
90.234947 26.633729 105.550541 42.512479 -27.875771 -32.483195 -60.962508 -143.610222 -5.201062 271.946547 64.295369 -35.585925 -91.365017 -83.156013 -135.560704 14.626803 10182 9670 
57.868266 11.455064 84.269425 133.659984 35.545938 73.937054 -125.965765 -270.769967 -29.771499 208.818276 -3.519036 -127.475388 -32.454967 -20.525095 -14.969497 19.897204 10183 9671 
-132.183253 102.236289 249.617500 306.512786 -85.757112 248.116639 -213.956518 -474.586332 25.704299 155.394375 -50.729794 -99.983041 -24.535588 -31.010629 8.481464 16.678915 10184 9672 
-92.137069 -33.264133 55.546048 347.198088 -84.123131 258.053335 -174.116565 -277.156572 41.105531 -117.241982 14.863254 -93.070842 22.898676 12.257928 29.066082 90.121353 10185 9673 
61.139731 -173.255905 -188.290278 93.242217 74.047004 -39.861332 31.254887 141.723676 -3.866826 446.570949 -63.945426 -91.876067 -79.710451 -94.747746 -74.662411 -37.762021 10186 9674 
38.119713 51.422798 156.248954 -114.640071 -22.691834 -209.256805 67.376841 33.420403 -65.038255 384.591199 -76.749594 -109.305394 -23.585054 -26.182961 -74.420259 -9.309682 10187 9675 
9.201811 -91.369403 -67.936278 22.533492 49.810798 -17.082047 34.867448 59.974179 54.195384 -50.596392 -28.436007 -184.921806 15.930662 4.807232 -17.285344 206.306271 10188 9676 
63.493362 8.815443 40.393682 -153.699565 21.118977 -122.880484 112.045616 30.712969 634.177604 -808.964247 -50.495307 -250.767237 -219.912639 164.679124 64.994419 466.288283 10189 9677 
18.169320 -2.980706 -9.768513 -67.217147 16.178415 -40.746822 79.678517 6.686935 591.831749 -391.462090 -22.822212 92.845101 -204.946382 -86.482081 -109.788209 130.824125 10190 9678 
69.114477 22.237265 -19.485707 -107.740591 14.990088 -93.882331 62.902999 51.863800 -192.498468 -307.008942 153.290278 244.010783 257.068251 -62.539774 -39.607261 -52.714866 10191 9679 
12.055275 53.079242 -23.707120 -110.144617 28.858148 -42.015465 32.256739 49.617798 -178.059063 -459.682132 66.635674 151.179714 148.461262 188.263867 168.298906 -85.098228 10192 9680 
33.317761 56.537825 -67.602486 -80.172568 27.856071 -39.666072 -29.835762 99.565230 -149.600507 -22.885610 53.413421 140.183021 116.019651 -25.884709 -15.058446 -96.186821 10193 9681 
15.024393 118.325560 19.214514 -69.794230 -40.816041 -62.483202 -61.648973 82.177978 -199.086652 -196.241066 50.198311 123.979046 135.619907 88.879243 103.270471 -106.619260 10194 9682 
24.599327 29.935167 -43.138112 -35.586963 -16.369071 -12.572388 -35.369449 88.501489 -362.214430 328.371705 -71.800004 313.963025 58.510020 54.502959 300.420885 -621.754161 10195 9683 
9.177003 24.803598 21.891199 -39.983778 -22.743931 -32.160385 -14.995293 54.011588 -255.474156 58.539824 -43.852693 206.286531 83.732192 39.555572 352.257892 -441.045162 10196 9684 
20.395844 17.867286 -34.617469 -105.336002 13.549540 -77.513053 31.112386 134.541467 91.373376 50.748916 2.288626 -187.117581 -30.787341 -24.755138 -118.168957 216.418099 10197 9685 
-299.799284 -114.313803 -297.801627 -14.843973 97.448669 79.577001 137.844875 411.888142 -24.274852 -17.269367 85.177870 -25.927517 56.742134 -26.205966 -197.241826 148.999525 10198 9686 
-194.147116 -71.318376 -211.345562 -88.821370 -8.878576 20.524807 172.835297 381.150895 35.232291 -331.465462 107.534776 49.925542 27.476037 24.571492 -61.661788 148.387112 10199 9687 
232.086036 109.571198 143.812011 -188.064637 -56.049065 -112.651959 -6.559253 -122.144330 -50.133069 75.684137 64.690701 -10.813442 11.311357 -54.731662 -153.615810 117.607788 10200 9688 
0.313642 -39.663144 -38.583822 113.137504 71.228424 182.464468 -103.409205 -185.487866 -54.264866 412.244691 -89.012256 -106.212301 -71.427222 -50.283425 -74.820650 33.776028 10201 9689 
101.190404 32.776670 50.621523 -50.129004 -11.790859 1.063361 -23.339296 -100.392799 -7.515353 524.099748 -110.876302 -215.159193 -66.450264 -85.744479 -108.540179 70.186022 10202 9690 
65.714706 10.964760 45.425295 71.274216 46.732785 110.725337 -104.694831 -246.142268 -26.418491 581.070139 -100.607106 -207.597927 -69.993152 -65.341417 -81.734953 -29.377092 10203 9691 
63.576807 269.020116 -34.081079 -9.180488 121.664476 19.851903 -58.762360 -372.089375 30.576184 363.975603 -66.797056 -117.240469 -56.393928 -73.905009 -107.361756 27.146430 10204 9692 
-11.040023 25.032090 -11.578809 201.280238 -4.158305 229.730546 -125.510585 -303.755151 66.940517 -73.916025 13.881256 28.177824 -0.616655 -24.681026 -61.340292 51.554401 10205 9693 
-48.614423 -274.427999 3.104539 123.368950 -64.037624 209.237624 -20.311007 71.679939 63.438493 196.386305 -8.598699 -12.281243 -78.921209 -79.789155 -114.952654 34.718161 10206 9694 
95.143538 109.080848 52.955720 -301.142688 -21.252699 -242.262033 155.532480 151.944834 28.163875 170.235256 -15.806280 10.979902 -54.658267 -56.711545 -84.683314 2.480372 10207 9695 
-33.479753 -119.271071 -10.833703 123.710141 -59.349156 67.238117 -63.667396 95.652821 76.873896 -143.762746 -6.895311 -156.587477 13.387861 30.883115 -13.542008 199.642670 10208 9696 
47.145210 15.145050 60.678650 -24.603514 -44.608736 -121.357029 -35.312312 102.912681 150.225311 -480.544644 -71.926442 -4.509389 -246.869374 109.451654 10.269661 533.903224 10209 9697 
-28.104875 -39.639013 -3.763449 78.180838 -4.741722 3.473077 -44.604428 39.199572 504.840256 -428.913305 -61.266441 -69.387415 -277.949368 -169.289336 121.266203 380.699406 10210 9698 
-21.514620 -52.786798 21.958620 49.421381 -21.771554 -1.699395 4.806904 21.585461 125.454644 -196.120027 98.638942 -70.765086 214.547734 -77.040672 82.778854 -177.494389 10211 9699 
-22.710397 -4.097972 -11.391704 -5.152722 6.576378 -39.458162 70.061439 6.173140 -318.774343 -152.588979 43.771939 291.738419 154.546956 241.743999 33.896875 -294.334866 10212 9700 
-22.919555 -91.948970 -0.509655 36.466476 -11.098314 19.146761 62.986182 7.877074 16.328578 -227.879836 65.136122 50.170964 138.771819 24.642676 76.715119 -143.885442 10213 9701 
-6.825906 -4.821491 27.043261 -40.947083 7.719011 -59.201226 83.207626 -6.174192 -206.553923 3.237495 26.316645 140.650893 124.334476 114.830054 59.239554 -262.055194 10214 9702 
-39.773783 -52.632262 53.680815 49.026413 1.357592 26.831309 -3.477775 -35.012308 -249.192937 201.224585 35.072360 81.489624 190.316813 215.191021 131.885203 -605.986668 10215 9703 
-9.778659 48.647630 96.383624 -7.049428 15.024779 -50.929459 -54.280799 -38.017689 -99.448873 4.898113 17.073784 238.170081 119.017475 89.673982 77.675447 -447.060008 10216 9704 
-14.739845 27.785384 79.656587 -18.989340 -4.301000 -69.803494 -23.929004 24.320711 14.438929 42.172859 -73.469234 128.329666 -127.812055 -114.786390 -63.249053 194.375277 10217 9705 
85.175779 -158.501555 -262.044324 -39.596060 -8.181239 3.589077 122.896011 256.662310 31.363077 -155.512638 52.505556 -155.346914 75.471671 20.260906 -4.650543 135.908885 10218 9706 
-58.854415 -77.927415 -163.053342 -77.924995 -84.252410 -52.981942 185.818243 329.176278 34.058638 -357.536673 22.024485 110.168756 -4.029649 32.848565 5.419926 157.045953 10219 9707 
-100.817121 158.152147 226.101113 -87.968856 -41.935369 -105.481184 25.009426 -73.060157 127.805266 -352.771268 54.870843 -110.649649 35.661013 -8.099871 76.104142 177.079524 10220 9708 
18.242440 -30.243107 -12.203613 148.451181 55.256807 157.600291 -121.600501 -215.503498 -34.984188 447.824672 -90.669612 -143.241557 -87.490351 -67.596145 -13.405262 -10.437557 10221 9709 
-48.229363 60.296393 97.217687 7.355943 -12.903435 -3.680886 -19.792658 -80.263682 -14.124207 600.138871 -137.534622 -142.188634 -118.106130 -151.409458 -41.450175 4.674354 10222 9710 
11.502911 36.305873 56.174845 86.095077 48.670753 86.278314 -98.675165 -226.352607 -61.288600 396.335691 -61.842513 -47.269677 -55.414675 -56.733420 -48.070102 -65.716704 10223 9711 
-104.030978 167.717886 -121.859457 372.103363 7.155904 357.356775 -190.126253 -488.317240 -13.063688 332.768298 -11.524428 -45.808803 -80.527148 -95.599451 -77.380784 -8.863997 10224 9712 
-140.997092 44.960702 36.611699 51.430788 53.834414 460.159553 -163.158790 -342.841275 -4.206354 69.490397 100.413323 -62.956699 -6.154114 -18.282332 -52.462567 -25.841653 10225 9713 
3.196642 -140.717769 176.921179 -186.300968 85.531083 -24.939113 2.449819 83.859126 -28.515710 184.703866 81.212596 16.028927 -48.817842 -50.624830 -105.712289 -48.274719 10226 9714 
-27.673254 146.709926 54.531859 32.655897 -14.433767 -302.839227 56.746266 54.302301 -26.336273 113.680847 68.149649 -45.556370 0.465464 -8.731102 -42.919784 -58.752431 10227 9715 
11.390595 -52.845393 38.296564 -42.005592 0.084056 -55.785423 -13.223813 114.089006 -27.093380 -41.539318 -13.241650 -113.001251 -35.469682 -22.230739 168.570215 84.005806 10228 9716 
9.538474 2.074219 33.545120 -39.375752 -54.477166 -221.775599 76.979529 193.491176 607.052673 -682.931100 -11.204527 -291.160437 -198.251642 202.427620 -127.036598 501.104012 10229 9717 
54.485499 -74.461715 -56.997233 -50.721697 -53.729362 -86.253410 52.951050 214.726869 657.792915 -278.782197 -111.606410 97.365812 -351.688193 -204.576195 -335.972651 527.466919 10230 9718 
77.473448 -58.633597 -28.620265 -160.086112 -43.606801 -116.603925 91.634340 238.442911 -199.566850 -364.487961 23.528013 304.803554 154.267197 -149.790617 265.546665 -34.300001 10231 9719 
82.951890 5.825672 -90.227681 -87.633071 -30.240257 -75.336235 60.412714 134.246968 -292.589369 -303.468253 86.993455 41.503808 261.801176 349.454174 133.575236 -277.270226 10232 9720 
101.026956 -0.173868 -55.616821 -115.392650 -13.263636 -73.658174 19.440106 137.638087 -205.425423 212.093625 -41.507255 108.085214 52.920439 -69.531900 78.088426 -134.723125 10233 9721 
75.818890 53.772009 -119.004294 -6.848367 -5.887513 -77.306842 15.565367 63.890750 -240.894573 -102.674341 33.903844 58.792483 164.358594 146.462155 135.732072 -195.680234 10234 9722 
58.051732 -8.421929 -95.966092 17.880704 5.539364 -28.141614 22.889268 28.168569 -258.864509 433.803861 -109.944937 132.346065 13.856108 19.708508 144.824333 -375.729429 10235 9723 
12.394023 16.219815 -79.913241 95.567041 3.761159 -57.836364 42.995882 -33.188315 -237.637174 345.002253 -143.000985 43.455325 15.531327 -21.332503 274.281627 -276.299869 10236 9724 
12.868646 -13.167183 23.851580 -5.997509 31.502194 -72.634370 35.212483 -11.635842 -8.799337 -36.464779 4.355849 -150.784342 47.673748 78.813557 -62.095183 127.300487 10237 9725 
-304.818853 -92.908842 -144.052392 83.901145 65.402453 12.115313 125.323420 255.037756 -57.168953 -58.256707 81.570091 -19.048001 72.396541 8.713975 -94.527456 66.320509 10238 9726 
-187.272121 -35.152320 -78.819712 -82.914040 -56.052906 -73.259509 189.806609 323.663998 58.768330 -449.810480 106.151841 -1.193767 87.157397 112.045921 -11.639273 98.520029 10239 9727 
195.301472 99.155518 231.892137 -107.668525 -69.398687 -123.489792 -34.121561 -191.670562 128.472649 -801.619048 123.832853 66.232010 127.365919 67.928862 82.480008 205.306749 10240 9728 
10.629599 -39.974327 38.521112 196.436001 76.150019 199.015689 -164.687236 -316.090858 -7.358559 163.250424 -59.724126 -108.005996 12.233741 12.521434 -21.425048 8.508131 10241 9729 
87.934966 32.724645 117.468370 -15.500279 -14.773242 2.119459 -54.337340 -155.636578 -4.966733 276.050676 -104.347075 -79.729295 -14.441401 -65.851757 -34.651739 27.937324 10242 9730 
63.790447 12.524711 75.131001 112.660289 45.227648 115.732971 -132.287418 -292.779648 -5.636865 104.387051 -26.973326 46.300258 -15.657289 -22.371269 -59.215651 -20.832908 10243 9731 
-110.710920 101.604428 289.923988 262.789396 -53.339576 299.250057 -228.607971 -560.909402 -10.184522 284.086540 -20.086143 84.851475 -83.184937 -94.897781 -121.333457 -39.251174 10244 9732 
38.257918 53.064768 180.232079 64.324886 50.406123 63.336331 -118.930631 -330.691476 -25.355237 229.815277 43.046892 33.314419 -62.194015 -68.521822 -85.719134 -64.386381 10245 9733 
141.848084 -86.922641 -149.007564 -148.664933 109.387551 -101.086168 54.811843 179.633828 -40.627957 545.112787 13.971682 -119.695535 -129.439640 -108.212228 -99.614531 -61.494578 10246 9734 
-6.409248 45.530380 42.463131 14.914342 -111.971437 21.987482 -16.624289 10.109640 -42.775202 367.224695 -6.486277 -62.369888 -81.257053 -71.258316 -47.832422 -55.245539 10247 9735 
8.259885 -65.588686 -104.631040 -18.892842 40.425302 6.911170 19.464934 114.051275 18.192058 204.086453 -17.639963 -95.032837 -7.730528 7.354578 -169.633560 60.403799 10248 9736 
22.498604 -3.345231 -59.746398 -93.879467 -31.688336 -12.425683 48.436973 130.149538 623.106299 -748.070164 60.174269 -137.995156 -105.934788 -190.894429 21.000086 478.613882 10249 9737 
-0.268355 -16.747123 -65.479158 -43.108414 4.791756 28.315273 4.455511 88.040510 442.238596 -449.160731 52.892752 -52.668885 -262.955765 -338.833988 205.396717 403.091306 10250 9738 
46.986867 34.189862 -59.169271 -75.795058 8.868188 -58.899838 2.773601 101.045648 -226.109402 -403.480405 107.969086 237.263955 133.802821 173.034007 66.032167 -88.512229 10251 9739 
-4.263882 51.248849 -27.994818 32.343464 -20.096649 -2.522407 -46.681264 17.966706 -43.038925 -563.909006 82.460148 172.122384 216.101541 289.390640 47.153546 -200.280327 10252 9740 
24.785826 -32.832416 -54.294161 -0.434222 17.450143 -45.507156 13.575636 77.256350 -175.175419 126.226074 -1.718354 86.770746 35.234487 68.496496 11.983787 -151.817818 10253 9741 
-19.180259 -38.479302 -14.655056 -34.429050 16.279001 42.233323 35.716110 12.515233 -133.643059 -4.850881 5.552440 86.803012 97.917732 150.803993 -16.825558 -185.757678 10254 9742 
9.772070 -54.155826 -59.492579 -141.286719 71.401128 34.068585 74.310415 65.382926 -187.412295 599.832788 -111.389648 42.715894 -46.491834 -1.547576 23.322998 -319.030328 10255 9743 
-7.324722 -15.612423 -33.949764 -56.141381 9.319612 28.807857 53.515667 21.385153 -136.036619 112.394519 -52.579249 79.986577 7.726443 58.769208 115.610538 -185.871419 10256 9744 
3.979299 -1.937214 -34.313702 -35.809800 20.976575 -64.517061 55.351130 56.270772 5.110066 -74.516702 -12.856838 -58.786410 26.361034 47.851073 -31.554501 98.392278 10257 9745 
-294.966483 -113.143428 -228.705943 123.186172 72.436836 74.179000 102.991843 264.022002 -111.853323 116.945247 -17.627923 0.684215 51.134368 69.700727 -137.604186 28.620875 10258 9746 
-202.025406 -44.148716 -131.477098 -55.347969 -67.094217 -95.330306 190.242448 405.181264 95.128482 -636.243984 103.340755 52.164230 109.501223 125.572376 40.264796 110.272122 10259 9747 
180.006218 112.663774 176.480728 -141.402738 -122.500737 -175.824164 4.843095 -34.266176 56.504348 -516.522082 121.085750 29.755342 88.354265 89.570881 21.704844 109.546651 10260 9748 
-10.102379 -33.917000 5.511995 206.728801 45.535851 180.507016 -157.021400 -237.242884 -33.630849 469.340613 -61.159830 -102.193274 -61.884558 -68.188797 -71.950916 -70.332388 10261 9749 
79.924282 43.397663 80.461753 -23.962735 -48.009071 -47.715331 -28.028833 -56.067728 -90.988639 829.125724 -138.841299 -144.154598 -126.300108 -132.391767 -97.210157 -99.239155 10262 9750 
44.335804 19.016019 61.456247 105.262088 12.303683 87.150797 -113.832131 -215.692508 30.592220 -32.289028 -33.201318 -14.007814 3.679843 17.807282 28.701094 -1.282279 10263 9751 
-54.750975 178.502916 -129.853433 303.043235 -11.659068 287.008488 -145.479895 -426.811269 1.270060 337.099355 -68.249565 -68.160883 -82.641034 -85.670416 -11.478100 -22.169417 10264 9752 
35.768842 65.710343 34.924891 82.148124 55.199553 65.497518 -101.218881 -238.030390 -0.563944 367.498326 -50.114611 -32.878860 -79.055282 -97.266233 -36.945523 -70.673873 10265 9753 
72.711879 -135.336108 167.590140 -195.912205 44.058784 -176.938065 33.915888 189.909686 79.665003 -185.655677 69.148575 77.116866 -11.044944 -45.611603 23.762582 -7.380803 10266 9754 
18.819408 71.125145 37.923277 -80.189166 -116.836695 -25.000000 55.183442 38.974590 -12.735914 302.686306 39.740654 9.167358 -78.109843 -104.538055 -96.203619 -60.006887 10267 9755 
32.143395 -90.050297 48.467493 -80.974154 50.390053 -20.057502 10.354026 49.726985 74.885314 -208.123285 33.614075 -72.369046 8.710632 1.410210 37.895586 123.976514 10268 9756 
37.900206 -0.431108 40.812203 -110.450029 -6.948366 -24.917713 22.742828 41.291978 488.750504 -688.943243 -25.883197 77.066223 -65.139120 -117.661620 -279.590217 611.400670 10269 9757 
-9.715524 -19.568980 -12.039207 -20.194325 48.832479 41.671857 -16.083699 -12.902599 727.878201 -224.420754 -182.180939 -129.076936 -373.465164 15.150475 -188.006410 354.121526 10270 9758 
9.725358 -21.700197 27.780890 -16.460583 2.122100 -61.709879 4.785209 55.457103 -68.322567 6.089753 -22.981869 -159.205552 14.252149 207.120486 252.903629 -229.856031 10271 9759 
-31.972758 24.347151 3.130710 128.158061 -64.173529 -36.614427 -46.869962 23.994753 -400.478984 158.542567 73.141989 126.189642 256.401777 -72.275913 -30.367836 -111.153244 10272 9760 
-11.934024 -14.967348 56.689098 86.964555 -56.526452 -106.514400 -38.900895 85.189466 -174.139292 356.837440 -48.378499 -81.511708 8.434433 35.012867 97.151923 -193.407164 10273 9761 
-30.266113 22.803960 18.755737 129.312925 -39.494277 -8.979370 -9.923304 -82.209557 -319.722935 275.226124 8.896418 34.867940 132.621718 -10.222951 68.148577 -189.814891 10274 9762 
5.104943 0.353861 13.944058 37.622701 29.356539 -7.994572 51.377244 -129.764774 -530.506493 148.297804 -14.437942 141.416655 173.769914 155.702569 307.009931 -381.252438 10275 9763 
-7.668936 34.888395 -46.137930 -72.273608 3.186781 16.226617 75.374423 -3.595742 -392.702791 158.343578 -31.545162 381.652261 11.581253 12.888648 478.335598 -618.553386 10276 9764 
5.182274 16.141493 -23.968742 -212.062386 25.941472 -44.476572 75.378119 157.864342 108.212679 88.016423 22.860564 96.779418 -97.471374 -210.326964 -50.523380 42.452634 10277 9765 
-298.854799 -100.955880 -241.857200 -30.927017 68.068320 92.176896 135.991275 376.358405 35.301794 -93.921924 36.925320 -315.397116 83.854802 91.622465 -172.328610 333.943270 10278 9766 
-199.984282 -53.740519 -135.110078 -140.808345 -82.025212 -142.752988 231.458719 522.962705 82.475715 -12.377475 -11.504538 -80.168758 41.171745 -49.507370 -109.634937 139.545619 10279 9767 
207.536122 74.894646 167.016470 -165.210882 -120.139753 -206.738880 13.320212 29.322065 80.514926 130.517635 -6.716912 -233.241471 3.047623 -12.689419 -131.911113 170.478731 10280 9768 
16.674223 -65.642298 -10.311105 205.738123 65.533836 193.167426 -180.294693 -224.865512 87.374640 -189.509174 85.112578 -17.773028 34.777022 -56.722816 -98.036881 154.777660 10281 9769 
101.109263 17.109139 77.281770 -36.732538 -39.305632 -59.144287 -30.386934 -29.930780 157.419318 -165.068029 47.728353 -48.168503 -40.140270 -45.082516 -57.357668 150.669315 10282 9770 
63.224868 -4.855101 34.670909 99.876944 27.379673 90.371903 -116.530073 -194.139124 66.064924 -297.060959 38.133018 -13.212860 56.945182 35.895517 -37.604229 150.839408 10283 9771 
-117.508670 120.941529 252.618462 191.365054 -86.785877 182.268038 -157.424658 -385.473878 121.411446 -364.127622 26.952239 41.188684 26.701733 30.498654 26.306443 91.068424 10284 9772 
20.847035 44.031043 96.101962 74.810391 39.537465 54.832901 -112.615590 -217.545206 32.124834 -155.440304 -2.008971 -27.985384 33.656307 37.780716 5.343444 76.529359 10285 9773 
151.679394 -143.402465 -209.365942 -38.637285 132.080877 -87.085192 25.316446 169.414167 68.162574 -112.858698 -4.686666 62.125996 -11.720933 -15.174343 1.583109 12.568960 10286 9774 
31.938800 32.464097 50.432585 -5.340805 -114.501910 -64.803941 35.691562 34.119613 -1.756058 204.238209 -32.920597 -51.643024 -45.664119 -23.443046 -61.388881 12.577515 10287 9775 
43.327416 -58.541576 -73.417298 -8.010553 49.742498 -1.640984 0.958739 47.581759 1.205908 284.170742 -77.181617 -126.019362 -84.483624 -70.185889 62.056032 10.437810 10288 9776 
39.446070 24.007215 -1.093530 -63.650311 -28.449241 -34.813568 30.887033 33.666331 423.672081 -215.701551 58.652283 -360.659005 -68.980779 -64.228319 -174.110376 401.355666 10289 9777 
-2.101472 10.397018 -20.439218 26.515470 23.793187 37.612218 -34.271918 -41.505286 753.609963 -102.257284 11.489490 -246.866560 -234.863193 -309.790098 -306.930574 435.608255 10290 9778 
42.311760 9.529763 -29.149257 -39.221770 11.280369 -32.021477 21.730936 15.539676 -47.570026 141.923539 -47.645099 120.112235 -58.213682 -30.875856 91.366051 -169.097162 10291 9779 
-3.629698 7.407424 1.467154 -11.175890 -8.022560 27.150352 18.291391 -31.488174 -438.371098 -149.604346 79.028856 224.464829 219.751893 278.849017 31.799577 -245.918727 10292 9780 
36.453927 -44.347837 -52.899539 -107.416051 53.894987 16.942079 54.339287 43.033147 -137.353523 34.358675 -12.473006 147.874382 13.832884 48.467035 89.724629 -184.431077 10293 9781 
-13.188333 -11.834104 -1.179173 -79.034115 12.177820 37.270019 26.161764 29.626122 -303.754883 -99.475626 36.349717 184.153742 124.507828 168.913545 106.072577 -216.766901 10294 9782 
-2.368253 -30.978713 -38.088744 -48.100969 47.494842 -5.385251 0.649461 76.777627 -442.273824 87.011612 16.905618 122.476727 139.775984 199.894405 143.299757 -267.090279 10295 9783 
-13.872033 8.812334 -8.644780 0.558916 12.011190 -11.285801 15.334227 -2.914053 -331.418505 8.150947 -28.139751 389.343437 40.009374 91.589688 322.313837 -491.849027 10296 9784 
11.514200 44.266458 -51.617826 16.500491 40.211497 -43.138290 9.533504 -27.270033 80.606696 -212.620929 -22.155113 229.174128 -33.600843 -16.537181 73.918862 -98.785620 10297 9785 
-110.038616 102.502254 -86.924821 -115.095992 -186.397340 -153.268079 264.902167 284.320427 14.772297 10.972259 -19.114028 -170.685858 29.444848 47.516684 -138.884094 225.977892 10298 9786 
-126.868278 47.879427 -57.226912 -206.073403 -168.152909 -228.903702 309.719675 429.626102 73.622116 -298.863608 12.334698 108.683414 52.688295 50.548496 -12.711731 13.698320 10299 9787 
45.990536 -20.133111 48.632304 37.317756 110.748642 16.565266 -116.483818 -122.637574 97.646082 -379.619707 47.000791 4.111507 44.769891 33.317128 9.164176 143.610131 10300 9788 
4.961453 -38.181072 26.367076 210.981080 65.216646 195.874280 -181.113936 -284.105527 -57.270247 192.934265 28.237788 -6.091193 -20.024494 -23.974211 -107.455840 -6.356066 10301 9789 
21.089166 -19.492420 27.384563 60.438534 64.406046 44.891850 -88.659426 -110.058314 15.646710 301.763926 8.705555 -72.533843 -82.039281 -78.879885 -101.525170 8.861987 10302 9790 
14.558190 -17.316736 36.891211 138.421225 65.251069 128.416779 -140.002727 -226.219012 22.034151 -66.364744 89.166003 -120.714566 9.758049 25.766958 -59.755473 100.109621 10303 9791 
195.866888 56.657091 165.017552 -8.312333 262.942338 -22.737138 -267.287775 -382.146624 70.464356 -11.823438 20.364600 -47.191157 -44.348922 -27.937863 12.290433 28.181990 10304 9792 
88.659446 12.672267 117.700096 -111.844318 158.048780 321.270895 -348.872951 -237.634215 -0.389169 -18.383398 -38.060684 -63.309693 -9.805287 14.042758 46.206764 69.698709 10305 9793 
-127.989284 -76.870776 -81.023719 42.744634 -177.233394 224.887507 -26.155475 221.640506 24.519705 95.625507 -96.071660 -44.572883 -37.013277 -24.098449 76.832636 4.778421 10306 9794 
36.307545 -12.977640 -22.557506 30.056353 -18.244178 -205.940281 71.810710 121.544997 16.752526 23.560819 -73.063521 -81.628592 -9.758626 -6.755920 76.323499 54.569814 10307 9795 
-29.045444 -37.333055 -126.875417 -24.406173 -62.613161 99.699080 65.387554 115.186616 47.358524 -33.183117 -5.995385 52.562973 -8.681154 -13.369748 -58.974873 20.282780 10308 9796 
-3.484992 -23.958289 -77.655727 104.731283 -50.444809 -123.498422 100.843283 73.467673 163.110885 23.973763 39.083881 -206.244335 -26.090677 -38.690286 -327.872371 372.729140 10309 9797 
-43.393809 -65.505426 -31.800097 168.697506 -35.154351 -43.340190 60.707152 -10.210785 170.079790 259.332059 33.436347 -280.261589 -65.170240 -87.701418 -361.187147 331.472197 10310 9798 
-84.220704 -60.536010 -24.383006 147.153415 -42.063528 -24.250979 81.945597 6.355215 -22.057238 159.849458 -4.808672 115.080743 -44.754211 -55.975875 75.757642 -223.091849 10311 9799 
-58.217041 -3.955622 10.873633 119.842278 -2.565760 -51.379689 59.199225 -73.797025 -73.110259 -149.151068 13.779223 155.515100 14.022689 11.066514 238.432145 -210.554344 10312 9800 
-90.047743 20.832746 8.850059 56.697648 -22.024104 24.589856 58.287261 -57.185724 -48.774755 291.750707 -36.499612 51.401776 -59.894354 -69.793468 58.579134 -186.769428 10313 9801 
-41.304890 56.210911 72.156672 63.012594 5.376989 -78.821203 3.283695 -79.914769 -123.637029 98.368985 -19.788358 112.875982 -2.873641 -6.100254 172.245666 -231.091351 10314 9802 
-57.517404 51.356078 70.702880 21.787192 -54.965963 -13.846129 -18.313618 0.796965 -554.492895 -4.241428 138.553340 308.443491 374.387407 -34.808022 99.601729 -327.443623 10315 9803 
-10.490245 70.700289 89.900731 -18.581148 -21.397640 -71.276206 -0.099115 -38.756664 -386.433755 93.602783 69.437449 525.506733 130.428467 30.116398 103.123001 -565.781077 10316 9804 
6.428213 58.489153 53.548719 -120.917120 -15.699144 -35.604865 57.650872 -3.895828 291.863247 -78.265074 -94.121503 -22.363687 -338.962982 17.542770 311.361384 -87.054154 10317 9805 
-251.544902 -73.655923 -218.925977 -64.582178 101.552598 36.265290 199.767760 271.123332 129.124046 -176.319296 44.697180 -274.324023 -5.863038 -45.812547 49.562365 278.935313 10318 9806 
-294.165018 -103.061509 -264.264245 31.036750 -209.107422 121.828449 258.501875 459.231120 262.492932 -570.818663 59.661415 73.243814 -37.814297 103.413281 -20.686302 130.507821 10319 9807 
151.855764 61.224534 104.683973 -83.907283 -164.486846 -50.081558 22.430343 -41.718927 212.859922 -468.883705 10.152310 -96.933539 -16.321647 28.713870 70.857788 259.555002 10320 9808 
153.703279 42.842356 95.364538 -87.035602 197.233531 -40.364474 -98.861453 -262.882176 138.691818 -178.207986 -3.470642 -50.939772 -19.472114 8.660419 -33.394094 138.132369 10321 9809 
102.010755 32.154033 60.458335 -64.255625 -42.942406 -16.911269 -13.379869 -57.133954 124.199488 223.050617 -79.997872 -159.249532 -96.864116 -33.367523 -53.121963 75.350902 10322 9810 
136.616322 41.264577 85.780889 -56.621222 87.494740 -28.839884 -76.008772 -189.686650 -3.142401 572.819613 -107.818007 -228.787133 -54.460070 -92.708332 -126.716834 40.813164 10323 9811 
-60.056293 172.639817 300.649859 79.561706 -57.421372 122.221859 -159.936440 -397.659138 122.090850 227.741547 -78.918827 -135.977474 -68.066433 -24.825484 -91.937735 49.893558 10324 9812 
95.794997 65.492309 184.290408 64.635767 88.202329 25.840914 -188.330827 -335.925897 -45.418457 491.290219 -125.488338 -175.759479 -11.666161 -64.689271 -100.577507 32.308995 10325 9813 
165.748172 -127.721793 -181.366610 -82.734193 158.150258 -97.761339 34.454121 131.231384 -20.460228 325.505823 -135.860209 -35.932390 -23.491599 7.795575 -90.247904 -27.309068 10326 9814 
23.234969 21.807021 1.116577 -77.637596 -95.251521 -51.731512 75.272603 103.189459 -50.400676 249.685080 -89.435860 -72.811954 18.964176 -9.150588 -70.206234 23.356055 10327 9815 
106.799152 -67.355422 -113.072048 -89.667058 93.461483 -37.759371 -14.793358 122.386623 -13.266490 245.480714 -43.470888 -16.748382 -55.872923 -37.934444 -53.924152 -24.263434 10328 9816 
49.896984 -4.501806 -50.412120 -86.238813 -49.355679 -52.076414 35.778480 156.909368 -48.498095 -146.496148 43.362242 243.219110 33.812087 41.141865 12.167182 -178.708243 10329 9817 
28.291308 -14.367822 -41.835247 -50.731204 23.153171 -15.357790 -0.799073 71.646657 -297.412350 228.958995 -40.824476 301.167351 6.580004 32.348298 258.364177 -489.181999 10330 9818 
36.806387 -58.746787 -56.355764 -48.338866 1.807525 -12.247148 28.129902 108.944752 -4.802830 -250.036148 49.519451 -46.633218 14.888798 14.287383 151.187801 71.588763 10331 9819 
-19.397758 -47.072469 17.655553 -27.989548 8.705937 25.384219 19.951665 22.762402 154.329228 90.681802 50.172649 -200.561238 -22.211038 -51.362261 -316.678540 295.629399 10332 9820 
2.942774 -34.417110 -11.286747 -25.200490 11.078426 -2.716415 6.458324 53.141239 22.436372 -8.980275 27.006434 -71.084901 -12.592865 -13.834553 -26.803522 83.853310 10333 9821 
-26.730367 58.436049 28.613184 -10.995160 -54.973408 -17.984564 -19.598432 43.232698 104.399330 -552.549889 119.441273 -20.762836 91.685968 63.614787 -23.566692 217.738059 10334 9822 
6.572350 -4.595117 -49.398159 -3.688643 -12.667980 -16.661114 -26.096174 106.534837 -105.645095 -300.343047 117.662716 212.677823 370.703332 -29.570648 -52.159362 -213.325719 10335 9823 
-8.640050 2.896114 -1.014912 3.815689 -54.299508 -2.457999 -7.422348 67.123013 -239.452623 -107.003512 37.513976 164.620492 204.609302 74.370254 -36.432589 -98.225300 10336 9824 
20.781669 -5.447175 -12.490424 -40.196161 6.023813 -18.942093 3.433391 46.836981 14.816645 209.956426 -47.662817 -144.129480 -220.240566 100.564324 -154.972490 241.667958 10337 9825 
-209.364659 -52.519637 -165.712861 140.291107 142.216466 -265.557813 118.938694 291.708703 181.761112 -485.524727 126.982059 -40.234016 73.069507 2.354686 -10.379200 151.970579 10338 9826 
-294.061396 -86.876381 -233.946849 151.072195 -173.956805 0.094492 186.409115 451.265630 100.516083 -533.569103 109.937871 14.905150 -35.781271 106.055818 60.583817 177.351635 10339 9827 
81.563864 22.175825 60.489223 -94.889316 -222.392301 238.584722 -23.765032 -61.766986 126.274027 -358.709636 85.960803 -32.185002 -17.317387 21.156717 35.623791 139.196686 10340 9828 
118.365003 41.780582 103.891573 -11.093070 195.971599 -32.022996 -127.367870 -289.524821 105.140415 -222.720770 69.046450 -20.653858 -35.498225 -7.708311 4.917693 107.476605 10341 9829 
55.961202 12.891713 41.216442 -30.211644 -62.367315 115.051155 -41.122443 -91.419110 29.743438 125.796798 2.835835 -44.937942 -106.339135 -43.522779 13.967956 22.455829 10342 9830 
83.226684 34.698873 85.647736 -6.847959 66.898136 50.012870 -91.183724 -222.452615 76.274760 57.045198 44.978731 -10.789821 -48.893525 -81.698168 -44.744403 7.827229 10343 9831 
-13.309900 217.581119 -103.352447 214.528291 26.144803 250.866792 -127.201166 -465.257492 76.873715 -155.495615 46.551742 -17.719896 -59.360590 7.158696 38.191195 63.800754 10344 9832 
92.752818 12.277000 10.194097 154.973141 124.556172 238.590438 -193.089891 -440.253775 27.082450 59.673986 -9.717881 -51.177322 17.620363 -21.753659 -20.451699 -1.276238 10345 9833 
88.168106 -210.661461 117.838284 -137.732035 129.157090 -110.456942 13.077696 110.609262 -122.551749 883.249470 -177.529320 -180.911959 -115.270319 -78.818098 -113.524300 -94.643724 10346 9834 
-43.482307 66.954114 15.527457 -131.046198 -127.583376 -12.415021 123.946685 108.098646 -67.587883 645.265030 -160.733007 -134.679784 -48.886443 -81.591885 -88.662589 -63.123440 10347 9835 
20.785912 -51.312259 108.785634 -68.551863 51.833876 -97.188110 -4.598515 40.245324 -27.715587 198.035194 -111.761765 -18.402565 -63.230243 -41.904357 60.370159 4.609165 10348 9836 
-35.799760 52.158828 90.707915 -69.252705 -109.290180 -58.885766 38.172581 92.189087 -145.948174 243.030993 -152.018311 58.230213 -55.281450 -44.367158 287.370849 -191.016962 10349 9837 
-17.575232 36.688033 53.429392 22.011132 -22.955819 -80.065626 -19.339746 27.807866 -219.022314 -25.902126 -52.858021 190.070019 30.057349 58.858342 311.292691 -292.495940 10350 9838 
-10.579768 -20.976380 45.785813 40.181546 -74.328103 -60.057464 -12.326613 92.300969 -58.237630 62.029301 1.831418 -4.868794 21.736832 25.674478 -47.321186 -0.844419 10351 9839 
-26.768223 20.465336 12.324395 55.482871 -37.973221 -33.353011 -13.047248 22.869101 19.537675 291.263675 -44.255808 -120.585657 -31.736083 -52.692741 -158.348050 96.816989 10352 9840 
8.825385 -52.264156 5.588845 -11.510075 2.674857 -26.266048 1.126022 71.825170 -7.671527 -83.007742 19.926288 9.327962 27.960946 31.054264 -30.971280 33.381089 10353 9841 
2.896430 -4.173072 -49.110819 -23.526126 -31.593447 -13.290674 26.928316 91.869393 29.124851 -219.573793 37.623212 15.648095 61.024244 36.083736 -26.870507 66.940163 10354 9842 
28.497373 -57.698252 -37.767258 -66.009383 9.479953 -29.235095 16.926320 135.806343 -444.829406 -180.638443 115.042120 20.223511 363.608959 411.467168 152.689770 -437.563679 10355 9843 
-7.610457 -9.196200 -87.629524 -53.639898 5.351558 35.837222 49.622143 67.265157 -334.727663 -33.474274 35.831725 418.280040 253.517024 264.407217 -15.053211 -588.780858 10356 9844 
18.283899 -44.769219 -113.122748 -48.371386 68.186983 2.057620 70.409436 47.325415 225.037145 63.798715 -122.449139 28.924824 -214.112977 -253.343223 134.297764 137.846890 10357 9845 
-115.614959 -45.595110 -229.147263 231.521324 -214.825753 -166.422959 240.247818 299.836902 201.272720 -403.431931 63.201022 -434.452402 39.895550 11.295191 164.663331 357.556520 10358 9846 
-260.982167 -85.318836 -206.544773 220.857493 -296.958521 3.064088 233.158021 392.724695 275.507052 -335.679723 57.510320 82.378965 -34.007737 -49.736208 -219.496766 223.524098 10359 9847 
-13.324336 -3.227887 97.909944 -134.766354 91.470764 156.436469 -88.862468 -105.636132 115.536896 -64.407431 -45.170806 -36.188812 -67.831563 -87.554650 1.548588 184.067778 10360 9848 
91.949736 51.100577 144.631062 27.699542 193.684194 -45.386445 -161.430692 -302.247974 71.325082 -138.744381 -27.107354 154.130882 -30.234366 -40.484387 -78.277151 89.391674 10361 9849 
6.757813 3.540857 79.009897 -41.923921 83.206487 71.698392 -80.238366 -122.051158 144.591703 -394.475046 94.354346 154.066861 -50.628865 -77.747053 -8.413263 138.251317 10362 9850 
55.562006 39.918562 99.336869 -4.463406 132.766265 21.140488 -115.830894 -228.429890 82.414697 -414.585883 151.004433 64.323248 3.664674 -15.674584 16.549259 112.304156 10363 9851 
-38.493150 228.416581 -54.027578 208.381452 84.613007 218.631314 -119.925107 -527.596519 8.458591 165.536740 40.198143 135.460132 -110.400432 -126.191008 -110.642858 -2.419308 10364 9852 
3.025095 30.409489 72.850435 245.653762 280.310935 249.546611 -193.695607 -688.100719 -107.149370 681.432103 -37.010148 -101.506009 -110.762198 -139.658724 -108.338747 -77.006906 10365 9853 
-4.865645 -142.770940 215.344389 56.197810 168.445223 -72.867986 -24.271836 -195.211015 -3.674100 483.236374 -48.147121 -31.967966 -95.278549 -124.585727 -148.613948 -30.968964 10366 9854 
-80.291893 171.405494 84.711677 -35.752404 -87.243356 -42.363187 23.753984 -34.220314 -23.237754 328.950463 18.452824 -149.317869 -49.597353 -63.047676 -60.777751 -1.424883 10367 9855 
7.357447 -11.834994 157.070521 20.970519 -1.348526 -105.539208 -102.185839 35.510079 -47.284304 447.876795 -15.108390 -56.264423 -44.095914 -54.092711 -186.486400 -44.544653 10368 9856 
-48.875008 27.369633 46.830490 -99.803439 -75.225324 -68.767486 23.776361 194.694773 84.909022 -334.850106 9.620968 -227.915042 117.293389 99.187875 -127.474987 379.228881 10369 9857 
18.106808 1.512025 -33.184201 -142.572421 10.043728 -48.350181 -15.843337 210.287577 240.671490 -251.088213 38.179032 -340.626676 81.707925 57.794490 -394.738692 568.100644 10370 9858 
70.364831 -39.235715 -77.851259 -217.269739 -19.052649 -57.717875 -8.938755 349.701161 -44.473771 451.893193 -78.444096 10.621870 -46.326777 -44.324492 -111.820919 -137.125007 10371 9859 
95.750940 -13.016021 -135.309509 -175.716023 -48.067559 -61.759021 0.108562 338.008631 -202.147548 222.250674 -93.545788 139.573815 -11.345491 12.880686 281.718228 -349.384576 10372 9860 
110.212753 -108.468762 -91.959820 -173.758436 -41.645002 -68.424735 18.110451 355.933551 -52.977027 104.265879 -37.458559 76.675331 -0.244394 8.587550 44.535278 -143.384058 10373 9861 
82.449901 -29.503214 -100.442292 -165.194379 -75.869358 -42.425780 79.660622 251.324501 -130.398796 40.675518 -41.502118 116.484088 20.174503 38.316574 202.045795 -245.795563 10374 9862 
79.346469 -69.138897 -54.891244 -93.400645 -53.789810 -40.297776 68.408452 163.763451 -515.526216 -113.175477 -9.629131 277.490890 195.598441 256.186935 422.953783 -513.899224 10375 9863 
30.893308 -12.894796 -36.728565 8.497518 -114.962313 -38.538675 72.906967 90.826555 -369.550020 -441.590109 61.576169 534.118027 167.939953 256.403534 407.105740 -616.003293 10376 9864 
14.670856 -56.110768 12.160811 59.655646 -61.826143 -50.695496 43.300617 38.844476 250.537902 -433.762210 24.197563 125.902018 -111.676435 -106.683999 215.978153 35.507009 10377 9865 
-106.648188 11.604578 -56.591442 -74.292595 -189.855112 -79.709491 224.145077 271.347172 127.948976 -199.898013 1.612360 -166.884847 -3.454541 -28.375205 50.284166 218.767104 10378 9866 
-238.983491 -53.966001 -179.689813 72.157838 -283.382979 47.939411 275.769830 360.155204 188.704288 -181.986686 43.474989 55.464172 6.837295 6.484270 -208.946020 89.967694 10379 9867 
-35.240812 -62.478393 -16.207564 156.632410 48.552639 95.654816 -9.573040 -177.340057 181.620855 -382.543342 65.116142 -85.422495 36.552725 19.412419 -15.542958 180.806655 10380 9868 
110.045598 39.089048 105.391761 22.103878 188.654179 -20.734713 -83.460291 -361.089461 118.708679 -559.711855 97.627563 30.979469 105.667572 89.721093 23.271999 93.735481 10381 9869 
-0.746077 -22.347051 16.042914 98.939273 66.587094 56.075570 -28.570661 -185.981060 100.043305 -126.392650 17.964792 -23.598954 8.833306 -15.402996 -43.358043 81.911241 10382 9870 
53.564170 26.450170 58.721458 62.412874 120.005072 23.722113 -66.244700 -278.631158 -3.982378 122.582663 -39.577431 -87.362383 -3.512886 -14.705077 3.708828 22.848664 10383 9871 
-98.313405 168.988453 307.210065 169.178018 -3.848093 140.321186 -152.081634 -531.454590 55.968306 283.875756 -55.718513 -123.133602 -48.605267 -58.211825 -85.825497 31.650642 10384 9872 
55.151294 -19.478540 116.634874 246.855365 172.577634 203.643956 -276.835546 -498.549036 -49.723741 541.497021 -97.913283 -185.200285 -69.686224 -78.421738 -26.323748 -34.228002 10385 9873 
152.454345 -158.367474 -220.036303 -12.389290 147.472586 -45.943639 -1.541257 138.351033 32.748006 292.155940 -52.773261 -96.111681 -65.294383 -60.926127 -54.329646 4.531152 10386 9874 
-73.022529 77.957013 -6.015937 -51.583775 -112.843269 -108.662948 156.951559 117.219886 17.658266 42.274390 -37.594029 -92.815266 -20.019156 -6.276007 42.606374 54.165429 10387 9875 
45.172043 -52.374905 -59.299709 32.077504 64.674046 -47.884646 23.271907 -5.636239 62.649863 -67.639347 11.824457 -41.946958 29.065730 38.355347 -88.087304 55.778211 10388 9876 
-40.680199 18.026163 -17.393409 -8.668423 -28.300496 -37.013434 68.609221 45.420576 242.825073 -329.032808 95.884066 -170.486739 -8.508774 -33.507872 -76.183616 279.010670 10389 9877 
-6.857203 35.970876 17.136044 -38.154274 25.100991 -13.330359 15.265867 -35.131943 541.963070 -446.996867 101.253875 -324.556578 -139.953889 -196.327346 -134.420124 599.037859 10390 9878 
-9.248038 11.724329 -25.658694 -62.162298 24.467124 4.549547 32.453719 23.874311 85.954455 -201.183466 44.045279 31.759743 6.891882 4.379123 -88.192452 116.345436 10391 9879 
-27.611938 58.838074 31.062262 -84.400789 3.906046 5.263866 43.784275 -30.841795 -365.909677 86.640710 -3.508758 276.550124 106.717283 145.374493 105.515780 -351.379955 10392 9880 
2.841662 -11.940172 -41.635087 -45.019575 35.898827 14.961827 39.649681 5.242838 -100.236421 119.330176 -10.130384 77.352749 0.909163 10.673581 -7.421290 -90.477575 10393 9881 
-40.109631 23.965994 8.449311 -16.925503 -7.623653 1.833191 48.186554 -17.776264 -242.129995 170.626554 -18.251706 152.012320 45.364051 69.311049 48.944886 -225.877158 10394 9882 
2.467420 -42.293382 -62.045227 2.674846 37.878097 10.274378 32.910464 18.133404 -427.640827 596.226239 9.586152 76.135050 146.019761 196.926860 78.690373 -675.943608 10395 9883 
-31.809110 3.893655 -12.874794 10.022905 -26.024975 -17.683931 48.352492 26.123758 -424.273922 355.837374 -49.661838 233.080930 57.021956 133.503556 259.881323 -565.389380 10396 9884 
-12.328950 0.212520 0.228322 16.013401 -10.456587 -33.002023 20.064421 19.268895 -36.229487 67.871984 -153.376273 104.005909 -181.733213 -171.653115 235.336428 135.777766 10397 9885 
-116.406852 44.570009 -42.619894 -47.139067 -181.206621 -32.408404 130.294175 244.916653 41.527565 290.972035 -34.765122 -166.331775 -30.510044 -50.208563 -139.369873 88.685777 10398 9886 
-199.354427 -16.118265 -153.383852 57.070015 -311.352047 61.411647 117.190860 444.536069 86.157063 -368.661129 92.503695 71.060779 38.229440 41.444835 -132.440713 171.706029 10399 9887 
22.883378 -1.397803 -24.569268 55.977803 -0.321582 40.821109 -140.139979 46.746342 113.018107 -319.950542 77.011775 -45.853301 30.351630 4.088954 -26.344645 167.678021 10400 9888 
150.458683 73.669174 105.934398 -49.052963 145.179094 -47.920716 -196.515940 -181.751731 -20.580536 -76.409283 24.446060 15.133269 61.511368 38.134186 -62.327700 20.092637 10401 9889 
45.369890 8.949050 6.640345 28.528015 27.981221 20.670199 -120.685355 -17.453364 100.813721 -480.838957 20.139092 102.994853 56.153924 27.355222 -0.640044 174.022188 10402 9890 
85.868957 41.997511 66.180244 -12.330390 82.548352 -10.113947 -134.933118 -119.217607 39.852103 -327.429374 23.846671 89.231333 76.012805 54.972668 -22.816328 66.330123 10403 9891 
322.608725 144.209619 238.704905 -17.090576 -125.254502 -18.138203 -203.809492 -341.230476 59.787050 -45.871158 -11.717020 22.962231 -32.613229 -48.311637 -58.918517 114.682280 10404 9892 
224.950116 3.787253 141.537306 111.140743 112.854111 80.966468 -321.673146 -353.562852 -30.770491 545.471422 -60.539506 -97.331781 -114.971931 -115.361353 -99.358975 -27.137385 10405 9893 
-150.631001 -134.607026 -130.093348 112.181443 195.607290 37.539124 -89.897936 159.901453 -6.805661 318.616351 -15.129876 -22.304997 -113.195395 -104.445187 -68.930858 12.195623 10406 9894 
-47.844185 44.987513 -8.180893 -41.565739 -124.972144 -84.039713 79.370491 182.244671 -16.167121 233.055966 -21.846719 -43.451807 -50.656544 -49.553934 -20.185937 -31.193905 10407 9895 
-65.842356 -53.002627 -74.469880 -0.565097 119.675085 7.365484 12.263056 54.576334 -67.413219 666.878973 -62.974956 -109.486875 -92.310365 -92.475961 -185.624285 -56.593311 10408 9896 
-76.527570 -22.964961 -46.684180 -32.520394 0.131724 0.900334 77.233726 100.431321 235.754321 -189.294608 73.116185 -206.630738 -31.083927 -74.550052 -106.435698 299.124517 10409 9897 
-6.873468 10.539645 -33.015683 -68.849649 24.708157 -6.561495 46.944231 33.108261 540.978232 -155.696121 -63.719532 -131.285622 -219.079014 -313.659933 -335.869167 678.331156 10410 9898 
-56.432038 -20.848483 -92.167413 -52.111224 45.315833 40.090039 99.509136 36.644149 142.929676 -243.673348 0.046957 109.759964 -33.088833 -29.160600 -107.519111 160.705296 10411 9899 
6.027099 31.787158 -5.694564 -49.488474 20.087866 34.155172 124.649453 -161.523710 -269.060645 -320.413992 92.387678 41.179863 192.811375 267.592289 344.739288 -349.235857 10412 9900 
-59.627269 -18.550229 16.843198 59.198620 47.106317 32.427222 74.029420 -151.427279 -95.578393 263.434555 -57.529246 28.442877 -36.540370 -14.743474 28.439590 -115.925538 10413 9901 
-58.956224 -37.767944 113.103690 63.570073 -49.505495 -28.906500 14.042720 -15.580319 -156.925522 -148.954479 41.587638 47.482156 101.263137 144.856180 185.635283 -214.944394 10414 9902 
-97.005023 -69.346871 51.786366 58.456558 6.878963 -8.979177 -24.829196 83.038380 -261.024892 40.635860 -26.411141 187.081686 57.329879 100.463968 303.909192 -401.984552 10415 9903 
-76.335598 -3.693383 32.319665 -23.833203 -30.571647 -12.303064 -0.278839 114.696068 -301.636449 234.687250 -8.937671 419.034872 12.822073 61.688535 191.721311 -609.379922 10416 9904 
-49.215707 1.129736 20.470003 -76.111704 19.845858 -1.970198 0.977425 84.874587 -137.742203 449.817580 -20.660158 29.846586 -91.580541 -86.085785 -8.554342 -135.041138 10417 9905 
-110.299092 30.754108 -36.786659 -103.522088 -185.447901 -26.473593 153.262318 278.512906 -29.561186 313.722668 -49.526877 -176.021049 -55.155433 -71.935313 -86.423093 154.900283 10418 9906 
-203.667239 -20.022232 -172.877228 -50.240260 -353.787358 -0.904062 285.431041 516.067340 64.712264 -199.271784 67.756063 -32.710057 76.885294 79.640364 -102.621909 45.609766 10419 9907 
36.666713 -2.926565 -52.235109 -21.572800 -37.429226 -20.689138 30.043422 68.142704 156.373398 -365.065288 103.294284 -96.591072 50.733949 26.699216 -60.456875 185.012388 10420 9908 
184.949566 57.031765 81.497460 -62.297131 132.466793 -54.668431 -115.177136 -223.802886 134.837222 -588.428618 132.771735 -77.581594 126.385589 113.876835 47.127393 111.011437 10421 9909 
57.826552 4.259227 -12.515752 -7.491507 13.626505 -6.377254 -14.921793 -34.405978 99.271192 -175.573839 -16.388544 -105.957359 39.948097 30.022746 1.030012 127.647695 10422 9910 
118.732147 29.673572 43.986781 -21.640280 71.711716 -24.702442 -69.761973 -147.999522 29.014768 -276.018573 -69.622575 -51.765856 76.038562 91.985672 101.392963 98.975039 10423 9911 
265.746852 83.350362 173.943368 -103.585902 276.453959 -104.375604 -177.715955 -413.817080 60.201908 -228.692224 -93.902789 -81.753012 68.214252 83.414010 68.316269 124.201589 10424 9912 
188.106043 -16.541201 156.541868 89.834878 265.082632 65.303397 -295.737513 -452.590104 -42.825385 404.519999 -166.408915 -207.906673 -29.082823 -19.948907 40.378810 21.273894 10425 9913 
-140.849793 -62.581696 -47.091155 150.333291 -114.871005 119.081727 -7.739843 103.718475 -18.303373 353.264092 -104.960326 -98.749966 -65.890896 -62.415121 6.839162 -9.783573 10426 9914 
-49.196013 37.459245 -7.501891 -58.829574 -100.456478 -103.796186 155.431319 126.889580 -49.760024 322.300283 -77.863269 -56.418802 -66.794241 -71.858642 21.834151 -21.439456 10427 9915 
-23.221606 -66.030197 -58.741909 50.219802 -18.363025 27.053800 56.621727 32.461408 -58.600779 374.183022 22.410986 -66.281696 -39.554620 -43.389097 -101.846302 -86.921514 10428 9916 
-19.341532 -25.030746 -86.355832 -34.845067 -85.613902 -19.766321 117.202056 153.751345 267.511137 20.090941 138.611347 -437.960381 -64.072462 -105.159870 -204.341624 385.320913 10429 9917 
17.163297 -21.742206 -27.971098 -25.272324 -25.654896 -10.513337 49.999462 43.991102 456.256749 -201.513441 29.658533 -258.072630 -311.149268 67.300036 -234.397697 451.917719 10430 9918 
-33.315389 -10.858014 -34.349180 6.490937 -68.775445 16.305231 49.983692 74.518169 78.995145 -27.170850 2.158485 184.942991 -111.751513 51.390476 -124.774166 -53.790569 10431 9919 
15.630044 31.530091 -6.277727 -22.916824 -42.288676 -35.927702 23.310792 36.940002 -164.962073 -162.661078 73.449038 89.746386 232.081566 -81.596752 165.187726 -151.244814 10432 9920 
-10.615361 8.679255 -55.524623 30.794954 -94.453413 13.940532 16.968088 90.210569 -94.713245 -266.237729 30.675050 259.842383 45.578343 69.009288 149.378413 -193.532503 10433 9921 
43.640767 57.796531 -30.294815 -42.578080 -58.614428 -10.887187 -5.766554 46.703766 -113.576859 -174.113413 48.821348 148.834843 128.061913 -13.266108 118.903502 -143.665226 10434 9922 
10.197067 21.134162 -29.165004 5.142872 -24.284754 40.813084 -51.260929 27.423501 -189.938126 -74.829848 -7.236469 264.441589 76.177205 32.352239 235.710667 -336.677257 10435 9923 
17.854692 44.735188 8.945858 -20.136155 -8.814357 0.399730 -38.480787 -4.504168 -156.231320 232.772767 -46.138594 403.864886 8.030373 -2.372665 72.818664 -512.744112 10436 9924 
16.587693 42.303928 50.096450 9.163605 -0.909282 2.819662 -45.968656 -74.093400 -2.616040 250.006654 -19.800393 24.100674 -24.029987 -131.711329 -53.574026 -42.375553 10437 9925 
-75.305768 94.158198 27.934166 -81.786593 -137.318262 -77.890195 134.828048 115.380407 -72.168661 165.867700 -8.497417 -56.506858 -20.917611 -60.529616 -51.136343 103.888807 10438 9926 
121.752977 -127.301244 -274.669734 -195.665440 71.239988 -182.134231 216.277233 370.500451 -5.969715 -84.544778 20.317987 67.461716 67.041443 -11.526513 -122.135011 69.354872 10439 9927 
81.435339 -154.489759 -118.399355 34.410135 180.862064 8.897076 -18.633939 -14.081561 54.328129 -473.145919 55.764257 5.508080 24.999543 62.718041 98.289721 171.538148 10440 9928 
-157.518692 46.316858 176.214546 174.485582 -30.590164 160.755760 -85.664074 -283.999816 45.427948 -304.325537 78.327580 -75.193148 42.786990 24.455675 48.109163 140.411328 10441 9929 
6.376902 -73.503511 -19.780576 74.394745 90.302708 57.278439 -41.498606 -93.570101 83.109265 -516.808002 92.060862 -25.793486 41.755651 85.241661 80.389351 160.044697 10442 9930 
-65.114282 0.540155 87.706711 107.460433 27.842307 92.529230 -66.303607 -184.660947 10.677308 -322.449361 50.315264 -50.675314 67.612259 55.328472 89.452169 99.739203 10443 9931 
243.285145 112.988216 250.877971 62.801367 -128.047594 52.194886 -148.322311 -445.777679 12.709363 -153.572909 1.875469 13.003751 34.116635 34.706539 15.707509 41.453643 10444 9932 
301.119708 24.611796 188.371046 -91.002322 266.199485 -61.677380 -189.087189 -438.535145 20.006064 -329.039696 38.307081 62.665384 39.444839 38.101674 69.207764 61.306890 10445 9933 
-199.132660 -165.076515 -196.385841 -58.619719 219.980442 82.046220 99.544681 217.643393 -88.910942 720.701970 -95.515397 -99.995317 -105.840886 -112.889462 -126.245662 -91.304305 10446 9934 
-135.542225 -62.934564 -107.114129 66.584616 -185.163535 97.100093 98.250310 228.819434 -117.362822 962.902618 -131.357706 -147.076541 -153.420167 -154.462788 -134.770090 -124.452504 10447 9935 
-96.457107 1.441977 41.001433 16.498344 76.243407 -37.003912 -64.666657 62.942515 -14.498442 499.524453 -42.213245 0.733909 -89.386225 -114.798638 -172.245459 -67.116351 10448 9936 
-76.896087 -22.760811 -57.980248 -36.248109 0.197360 37.602095 31.360962 124.724838 129.979748 -218.675245 -61.018050 87.116130 -88.610087 -95.645377 -186.429194 433.282075 10449 9937 
-81.010780 -3.615503 10.314318 17.162520 2.019732 19.763996 41.231155 -5.865438 439.909135 -87.358899 -68.944337 -286.021622 -156.783695 -202.850628 -208.418167 570.468212 10450 9938 
-109.729318 -50.893511 -28.658164 94.432868 17.280471 -2.737043 58.128620 22.176078 118.742028 294.754032 8.461024 -182.728535 -9.580648 -9.289780 -61.857659 -158.500462 10451 9939 
-116.769464 -15.229795 47.565350 163.356876 -77.517477 30.613555 0.976123 -32.995169 -300.555580 28.152718 4.323113 229.972237 132.946761 155.245958 76.255264 -326.340470 10452 9940 
-105.556802 -15.521117 2.136910 154.734982 30.208478 9.419997 -87.931061 12.508612 -114.802299 516.958300 -57.843342 -42.403788 -22.497169 -5.034794 -2.064091 -272.312818 10453 9941 
-65.584524 29.231727 6.431033 168.045988 -65.116434 21.294488 -58.479880 -35.822398 -194.719953 310.010730 -30.137196 66.209769 36.644539 55.941369 24.760249 -268.709507 10454 9942 
-49.932805 7.424425 -7.506665 95.757130 11.236261 -23.662479 2.545588 -35.861455 -336.054466 269.244926 48.404337 55.714253 215.766078 268.733155 103.733057 -625.541341 10455 9943 
13.633045 52.711200 -14.811056 -2.826519 -40.317125 6.238566 -16.934377 2.306266 -361.280621 32.847809 14.096090 410.423693 203.172699 293.481800 128.162513 -720.903981 10456 9944 
43.264915 82.776536 2.695043 -85.686533 1.627257 -14.659422 -73.268613 43.250817 86.768472 -374.678736 -55.542426 250.068240 -37.286370 -9.787047 -24.668640 165.126508 10457 9945 
-20.746413 69.874096 -44.617719 -159.051817 -175.648306 -54.752822 97.709527 287.233454 211.914976 -264.963530 28.025616 -265.729544 -2.870260 -22.257902 14.101780 301.778865 10458 9946 
166.160224 -105.457228 -247.376167 -287.155745 3.004525 -227.171025 222.456490 475.538926 52.554442 -403.323871 8.785426 89.756716 -17.605614 -0.301815 85.107693 185.027024 10459 9947 
134.053635 -59.610166 -55.638470 -94.190491 114.568356 -81.885806 13.982565 28.720375 225.133297 -667.503817 94.344274 -99.821086 13.925991 18.266285 99.351973 316.303085 10460 9948 
-112.922187 118.426570 213.528190 96.455027 -113.252778 121.734266 -64.845446 -259.123642 119.144951 -481.065524 23.897597 -101.830302 50.697849 55.919582 105.338505 227.897342 10461 9949 
61.399346 -8.133270 17.567997 -25.038545 53.414015 -8.693976 -19.036771 -71.478796 127.611187 -125.819236 -95.046085 -197.076174 9.504621 -1.928629 55.611385 227.142932 10462 9950 
-20.149628 55.122836 110.892630 36.982421 -37.448574 57.877962 -44.769030 -158.508618 69.843547 -94.177107 -24.451076 -122.067057 23.527324 9.270738 20.365747 117.687885 10463 9951 
236.519713 114.645911 221.160001 -92.723752 265.170664 -74.089717 -170.288094 -500.394727 56.150822 -14.511389 47.848880 59.550290 -76.504687 -91.911183 -51.224214 70.601483 10464 9952 
412.321886 176.318618 321.901547 -62.791732 26.641148 -64.213329 -198.227691 -611.950447 49.904312 -270.713851 210.262573 141.172863 -42.414755 -70.057435 -48.196794 30.043086 10465 9953 
-73.422938 17.358173 -19.013493 93.971400 -249.972666 104.916294 64.821288 61.341941 -40.214369 214.654003 168.424278 196.271948 -163.656208 -173.169532 -139.772364 -62.537756 10466 9954 
-175.982166 -81.717022 -182.164532 -38.550423 94.634225 43.942802 98.435321 241.401795 -7.723312 314.164771 96.488981 22.158313 -126.962501 -132.666232 -131.756390 -33.703631 10467 9955 
-78.420390 -30.315127 -33.146621 -0.868804 -103.202944 28.531142 58.436408 158.986336 -57.308558 505.055369 -52.788128 -33.089404 -98.196375 -101.740941 -120.338149 -41.593815 10468 9956 
-115.140373 -94.790487 -131.624247 80.429347 6.717659 13.609941 42.295362 198.502798 -5.601054 554.307026 -114.318925 -190.556256 -61.788285 -63.838422 -257.744991 139.540906 10469 9957 
-74.818914 -37.541736 -36.375681 31.294764 -15.361238 26.356482 10.769039 95.677285 123.069687 8.985669 -21.018363 -236.729087 8.187434 12.435455 -252.897971 357.967176 10470 9958 
-56.468739 -53.324360 -51.131884 -11.012495 -29.831216 16.062807 20.468036 165.237851 -35.412765 397.682396 -102.369139 -115.177017 -62.611860 -51.738436 30.894682 -61.267862 10471 9959 
-51.121493 -18.778098 -3.664708 -17.846609 -17.666163 -21.929000 -13.749358 144.755429 -128.485615 210.654956 -94.297983 65.265315 -5.419110 14.847910 184.280279 -246.845752 10472 9960 
-22.642632 -20.172030 -41.962130 -15.537463 -47.599265 -17.218300 28.080928 137.050893 -36.134880 99.638054 -56.130920 -13.343313 -8.192022 3.500263 85.987031 -75.324212 10473 9961 
-42.099122 -12.350607 -43.619657 10.786567 52.229561 0.967467 20.358468 13.727324 -58.689844 4.465217 -46.733375 41.483293 18.692966 32.044952 142.545670 -133.808879 10474 9962 
-11.697899 -6.767673 32.417630 23.180428 -32.388681 -9.620124 4.773018 0.103302 -360.075724 -224.866602 15.189731 71.785073 206.106274 250.190670 222.037936 -180.367358 10475 9963 
-8.601375 -25.310947 16.212923 -10.442145 13.635636 -2.060359 10.953344 5.612922 -447.257130 -173.925964 20.075919 189.042403 229.950313 318.120969 173.581324 -309.587834 10476 9964 
28.319192 -10.280103 -20.658743 -50.253268 -5.254034 7.269949 19.932712 30.924294 172.601754 -369.588925 -8.806395 134.247938 -60.667720 -40.437240 191.452282 -18.801694 10477 9965 
-52.219066 3.026780 -96.536825 -52.976224 -124.301821 -8.677506 105.746173 225.938489 294.205282 -576.684009 19.590228 -13.965316 -25.824516 -58.214056 142.169099 218.723287 10478 9966 
152.516454 -104.832227 -264.590841 -215.845300 29.973937 -195.412336 180.834070 417.356244 155.000412 -511.908002 19.244783 140.140366 73.196174 64.495708 -53.861022 113.691581 10479 9967 
137.968969 -50.027345 -63.602778 -99.636683 152.659219 -102.365948 13.976993 11.027573 217.687561 -574.814396 1.763465 80.825643 39.708212 10.470202 78.138511 146.220802 10480 9968 
-116.280525 112.053670 194.376562 126.429481 -60.773385 126.311374 -82.339824 -299.777354 165.162095 -452.278502 47.861472 57.681061 47.635963 31.509722 7.376906 95.051282 10481 9969 
64.316220 0.490713 13.957211 -3.351647 71.109435 -5.639399 -33.159410 -107.723123 154.713767 8.275202 80.581789 -130.662992 -38.530211 -74.436812 -50.902100 50.961356 10482 9970 
-28.420536 52.757344 100.373546 60.962757 11.064984 56.039324 -59.422133 -193.355285 94.152267 -218.522097 144.233565 -34.007827 8.132200 -23.649675 -9.326919 38.988487 10483 9971 
219.966493 117.030647 210.272822 -96.668386 250.214796 -97.468787 -165.044976 -438.302610 52.018248 8.520216 92.730740 42.527994 -36.961769 -58.491657 -98.202973 -2.140800 10484 9972 
353.371307 139.602851 311.646451 -70.918065 37.993943 -98.787696 -233.181813 -439.726978 25.082561 226.335399 -5.002137 -86.381726 -52.929846 -68.441131 -36.776601 -1.886519 10485 9973 
-143.503936 -26.951906 -3.305427 207.716530 -260.373521 141.705132 6.539548 78.173579 -7.834030 541.368964 -85.206478 -147.097099 -84.252645 -84.685028 -98.348998 -33.944685 10486 9974 
-218.269633 -93.030696 -148.971319 85.885565 120.038272 63.282868 100.577517 90.487427 -49.152559 692.650718 -105.796746 -209.231262 -85.508121 -103.242139 -77.158964 -62.560927 10487 9975 
-71.656503 -5.021368 4.584581 31.390400 -91.911887 59.774734 55.365757 17.474286 -1.005462 137.441489 -73.879170 -49.077818 5.179901 -3.677835 -32.826434 17.845329 10488 9976 
-100.791719 -37.338360 -76.251509 74.870269 -0.090061 28.595978 46.236712 64.768691 -54.845341 414.434029 -158.920295 -83.622681 -64.860387 -66.233309 -23.863858 37.911841 10489 9977 
-45.824167 20.725231 31.660044 53.512350 -53.151151 4.929163 -3.451970 -8.399500 -51.960818 255.827019 -106.354596 -59.898772 -32.397449 -19.549715 -53.438906 67.773236 10490 9978 
-12.370706 -11.721097 -56.211244 -46.988478 -20.034219 17.183022 38.911817 91.230905 -86.752112 438.745564 -64.515376 -36.295449 -45.462059 -38.123715 -89.404474 -78.192379 10491 9979 
-17.258124 6.775753 -42.984245 -95.304721 36.008488 12.780134 27.759243 72.223472 -99.227338 343.594325 -22.424963 -8.652103 -30.485102 -26.168477 -41.474112 -115.162230 10492 9980 
10.914429 -16.795095 -49.352327 -82.500368 -21.649535 7.050371 36.924568 115.407957 -12.069657 -119.516926 29.386051 45.350316 31.656088 38.128251 -10.013452 -2.920673 10493 9981 
-7.648062 -15.618207 -67.587338 -35.535048 49.551808 4.252505 35.443455 37.140886 -47.914878 29.969474 15.395606 24.155952 13.380160 16.949243 -2.092148 -49.843409 10494 9982 
23.880821 -5.293248 -45.200202 36.774456 -20.657388 -2.603517 13.008755 0.090323 -371.690805 -245.948588 76.493027 78.999783 220.870192 253.400656 125.975154 -138.099420 10495 9983 
-1.627999 -37.368054 -49.693568 89.883552 55.520321 2.389291 -3.680664 -55.422877 -562.586070 61.525839 57.106052 269.855488 254.480253 300.224008 78.172907 -458.778477 10496 9984 
-9.138472 -26.321812 -15.285357 101.904855 11.690884 8.478266 -41.489581 -29.838783 100.205422 -159.421767 26.023653 181.556507 -59.386374 -63.654522 100.570472 -125.893391 10497 9985 
-83.950682 -24.993448 -105.100512 67.541114 -118.942420 44.931634 57.356792 163.157522 303.510796 -489.055534 63.433138 -112.072138 -48.490311 -65.778842 63.726924 284.725967 10498 9986 
159.474169 -120.855129 -287.171724 -202.117835 22.379630 -171.133806 175.126799 424.297897 139.603422 -103.073833 41.166169 -37.553449 5.951491 3.483300 -165.599897 116.022796 10499 9987 
123.878438 -36.980212 -60.871082 -140.821424 127.399094 -138.258472 7.646723 118.006935 194.335087 -121.731125 6.442502 -63.158253 -72.717670 -89.769971 -20.748550 167.347980 10500 9988 
-148.291428 112.554143 208.044560 130.738293 -83.436543 135.580795 -119.531715 -235.658105 90.522532 -173.614444 47.706389 54.732072 -17.155553 -21.192723 -68.324738 87.326466 10501 9989 
50.819799 6.672883 26.599862 -20.488369 51.973079 -17.140219 -52.674806 -45.762229 143.781976 -307.437854 67.386333 106.529670 -30.473028 -44.935387 -21.927764 87.076054 10502 9990 
-50.315298 55.982614 113.151812 50.816920 -9.286746 51.933192 -75.751290 -136.531204 111.719007 -124.050747 21.756805 -59.596110 -18.252215 -32.686378 0.460576 100.649063 10503 9991 
210.908340 118.081992 230.489617 -105.214910 237.069301 -101.012945 -180.317633 -410.003761 65.143051 134.834832 -18.120082 -138.742747 -20.949002 -23.747679 -48.116885 49.698511 10504 9992 
-26.006607 150.201305 391.807139 95.257676 96.294852 53.174757 -261.037663 -499.691459 31.875083 43.849833 4.232909 -127.690822 -1.440137 -16.639498 5.853232 59.959400 10505 9993 
-262.206495 -17.117538 26.258050 306.539876 -258.023022 203.150247 -42.932593 44.331476 -25.803722 320.915957 -49.112748 -95.215162 -24.049772 -45.938888 -67.843851 -12.951814 10506 9994 
112.932141 -63.295205 -218.930223 -49.749369 51.184457 -88.516468 87.046056 169.328610 -33.411317 245.975358 -72.140494 -18.113022 -40.987748 -62.261705 -22.906030 3.844958 10507 9995 
-84.930293 20.140701 -16.682804 23.852700 -103.240674 32.890258 58.216077 69.754037 -20.427309 -5.051005 -40.412146 133.349925 -22.693959 -21.841657 -30.542268 7.618419 10508 9996 
21.907712 -49.121858 -116.527226 -29.746386 -25.692968 -38.866400 83.010559 155.036567 -27.224770 442.133308 -95.689298 -49.730328 -97.634599 -81.518917 -144.314749 53.979353 10509 9997 
-26.953283 -9.630969 -5.830053 -44.300395 -23.849149 16.162678 40.432769 53.968402 50.759465 159.828445 -9.096169 -140.188161 -25.896129 -16.488256 -202.227411 183.308216 10510 9998 
-16.701455 -45.954415 -39.152189 -18.139090 -31.044785 2.996220 34.986889 113.008824 -0.111415 57.856456 -12.181230 -28.588631 -23.786025 -12.429227 15.393685 3.846385 10511 9999 
21.445383 -18.400211 13.927244 -24.042989 -7.508512 -32.585033 0.155662 47.008455 -106.219307 249.960253 -55.587945 44.438331 -35.820382 -20.242243 88.314731 -164.843438 10512 10000 
-30.831738 -46.799097 -3.228249 -37.157928 -33.447277 19.810793 42.524577 89.128919 19.274582 -348.761486 46.449816 71.495185 51.152444 61.628718 95.328962 3.431778 10513 10001 
25.532657 -39.688611 -46.341013 -79.349105 35.531483 -3.835709 51.237727 56.912571 -28.675395 -177.910604 15.893276 68.863765 28.578870 39.850460 114.132483 -60.732855 10514 10002 
-22.163505 14.045680 -13.474392 -40.710533 -12.400891 26.404113 9.878796 38.420732 -300.093496 125.810314 72.937030 34.828155 208.413017 247.152810 122.597087 -511.644917 10515 10003 
35.102804 -0.338068 -38.187540 -55.494269 21.612560 -20.526405 21.726802 36.104115 -493.030349 59.111350 59.803063 284.294077 207.478571 306.544340 69.997581 -494.198634 10516 10004 
-13.680541 0.879391 2.221221 -11.502498 -18.655083 -2.925560 34.218760 9.444310 13.029410 -129.195526 -64.172686 213.315946 -159.307206 -131.057966 157.969452 99.418576 10517 10005 
6.180472 35.784628 -43.577043 105.278822 -85.068008 -349.299118 149.727808 180.972439 255.526512 -179.283084 8.258660 -132.908760 -85.914337 -120.465030 86.076601 168.709439 10518 10006 
-230.473661 -37.240267 -195.893564 -78.019601 101.573847 -240.796499 243.774971 437.074776 92.678660 -427.082096 67.674993 34.469233 60.436492 61.796262 -126.041218 236.067675 10519 10007 
-55.410859 -56.667268 -78.018086 -186.636853 97.740291 173.906562 17.585847 87.500366 199.653465 -546.106051 53.298723 -14.182629 4.595297 -32.526165 142.589402 192.677958 10520 10008 
204.614565 58.857547 157.005572 79.657799 -136.610648 55.897560 -135.824473 -283.597922 127.138797 -484.180791 70.057932 57.279739 33.430789 2.590266 63.857375 129.825893 10521 10009 
23.984234 -14.287369 9.222538 -34.798846 36.990473 123.417852 -56.663521 -87.865361 93.342314 -180.034626 17.828547 61.400200 -29.283550 -72.115922 24.817427 84.045610 10522 10010 
110.302591 21.477165 77.186011 17.289976 -41.530828 77.826058 -88.236551 -174.314422 43.326491 93.192656 -16.917436 -18.393065 -8.994174 -52.177819 -21.106579 -18.930074 10523 10011 
125.530607 -9.271529 84.722423 194.416737 86.095971 232.857222 -243.988138 -470.363293 94.076535 -165.918212 10.275416 -9.349103 26.327454 1.070072 -65.660739 109.178577 10524 10012 
386.113640 85.926806 276.333423 63.277154 -9.179273 89.133538 -246.530286 -645.075002 56.764400 252.227804 -60.946457 -158.206661 -7.639212 -35.069660 -54.285968 7.155754 10525 10013 
74.739956 62.335389 145.482588 91.588296 -162.885302 -84.447665 55.578309 -182.391570 -19.561475 362.218519 -105.422063 -165.507203 -1.912491 -9.335955 -90.479573 30.000240 10526 10014 
-264.492516 -68.767287 -106.970104 113.025186 47.935893 128.740310 82.517862 68.010656 -18.429281 223.996358 -93.343381 -174.682743 7.577637 5.993905 37.150740 11.736766 10527 10015 
-12.792404 27.048434 56.393813 -113.785610 -43.950976 -73.279317 54.016691 106.349369 -56.108574 232.442572 -62.621770 -121.038140 -7.736032 8.762522 -15.677326 21.976747 10528 10016 
-176.181570 -49.713286 -114.979011 -46.794881 65.939029 44.539134 70.341527 206.849057 37.274399 167.364548 59.974252 -166.429066 3.398894 -3.750974 -290.488292 192.656239 10529 10017 
-25.776083 19.074908 -58.716378 -86.574951 2.705833 -36.300139 29.484521 156.102289 121.009451 65.992278 55.074170 -368.538635 -62.531673 -108.351405 -150.514227 447.860040 10530 10018 
-27.012880 -24.080407 -106.011165 -112.827980 18.468853 -30.546181 48.169158 233.840603 2.080786 80.614134 -24.360725 -53.458736 -90.221306 -97.227033 173.877544 8.695336 10531 10019 
-29.050911 -52.945330 -85.627836 -25.330434 23.257222 2.499355 0.661278 166.536655 -153.625944 298.146256 -3.352067 262.044572 -16.048692 26.408524 -61.371560 -352.201088 10532 10020 
22.358413 -24.260078 -38.095118 -86.157016 -32.280698 -68.912374 25.867422 201.479449 -106.234021 318.617525 -42.252853 39.058792 -71.327118 -56.340153 68.786949 -150.309121 10533 10021 
-9.388523 -27.883992 -32.942630 -30.838120 -20.046327 -11.596749 -30.379214 163.075555 -79.889323 25.805251 13.731831 170.696314 3.371246 27.939419 45.888074 -207.542813 10534 10022 
60.633118 46.668999 3.390777 -119.103137 -15.363944 -41.566333 -68.627160 133.967681 -305.883320 -218.079086 10.660677 400.245727 96.366017 139.066550 374.546938 -496.923503 10535 10023 
14.611023 34.860982 -107.564312 -124.945972 45.100583 39.721453 -3.334097 101.550340 -447.420819 -392.637125 26.177372 310.163416 175.342954 283.451095 431.681553 -386.758447 10536 10024 
40.162069 43.153918 -78.182062 -109.286111 17.997938 -12.161551 67.556166 30.759634 12.510725 -185.106915 18.215927 27.865832 -56.840441 3.471043 113.789461 66.094368 10537 10025 
-112.386444 26.494613 -115.193150 57.405579 -80.882808 63.547841 87.240334 73.774036 234.314056 -263.143827 67.832597 97.050999 -99.421734 -129.438484 76.467707 16.338686 10538 10026 
-69.415377 -256.967203 85.910438 131.823401 -130.489262 14.384572 16.492956 208.260475 124.378117 -417.616050 167.193983 42.119510 83.409638 95.753636 -282.566475 187.327642 10539 10027 
-5.191547 -119.766674 133.684279 53.435327 45.603955 -109.418373 -6.981626 8.634659 165.835416 -37.200696 55.598893 -40.002859 -59.291466 -84.164045 -92.831509 92.056267 10540 10028 
-32.454609 204.448731 16.333666 74.027290 61.317213 -66.715347 -1.680809 -255.276134 121.447819 -288.161645 138.562230 50.153532 48.597968 20.882524 -180.887358 89.404931 10541 10029 
13.045988 -17.812764 92.966214 89.824963 58.292010 -28.690181 -51.056914 -156.569314 140.940510 -362.438415 130.816648 7.262379 48.832261 6.129295 -102.494447 130.951769 10542 10030 
-12.574310 87.822000 35.311110 69.304191 55.476713 -38.361495 -18.355017 -178.623191 82.626475 -86.478173 -4.434580 -16.172591 62.768819 9.911359 -53.707569 5.486260 10543 10031 
68.008770 24.731048 86.672075 205.393345 119.227565 123.765773 -188.331027 -439.467548 34.439748 325.292653 -173.788807 -199.242460 57.395964 11.760133 -109.156732 53.299502 10544 10032 
-87.143907 167.105698 367.407194 84.981214 46.696160 12.802615 -194.995592 -396.853383 5.967156 572.707037 -228.778653 -139.705823 -31.301309 -72.031535 -60.198803 -46.658072 10545 10033 
-127.736701 82.782481 101.539831 -57.803787 -74.271865 -49.393430 1.232283 123.651186 -40.974386 554.197943 -175.039616 -93.746308 -38.045570 -57.786735 -152.958033 4.352704 10546 10034 
100.937530 -150.331315 -226.986725 -2.913279 60.697658 70.354065 22.885146 125.356921 0.089828 254.101514 -143.694906 -18.611038 -25.450115 -37.335377 -12.109486 -16.990420 10547 10035 
25.554004 83.375916 -5.175101 -146.344996 0.152268 -124.510603 120.339877 46.608636 -19.738613 197.145457 -60.687002 -31.575763 -20.459372 -4.602643 -86.161045 26.078980 10548 10036 
34.187324 -84.028305 -96.794095 65.237606 9.342189 -15.063266 53.077942 34.040605 63.150504 85.826064 92.244266 -222.397067 -26.737574 -17.783361 -302.121663 327.818831 10549 10037 
17.790900 18.461123 -44.299398 101.943280 -12.137934 -59.861891 49.291077 -71.187157 312.353086 -110.511061 102.052693 -319.870219 -111.477928 -124.847138 -224.923763 477.224330 10550 10038 
11.826785 8.945311 -12.940414 94.383534 -37.445736 -56.543690 54.739226 -62.965015 64.907305 274.052296 -40.218052 -67.430703 -124.921152 -122.683630 62.339958 -46.046022 10551 10039 
-1.538624 6.119215 -38.088284 97.178205 15.901542 11.914466 45.484847 -136.971367 -238.967497 135.360774 26.572929 113.769856 59.068227 94.712208 25.634989 -216.151486 10552 10040 
-60.633059 6.210684 14.744565 45.283556 11.161277 -11.723098 45.190347 -50.234273 -98.258048 88.272991 -7.943609 65.805979 -21.926349 -5.073774 143.867005 -164.744195 10553 10041 
-8.797912 -37.861084 -80.996598 26.583870 21.839222 34.537820 15.025501 29.669179 -137.369245 20.907947 13.856414 102.199085 27.662340 49.059900 93.638530 -169.954970 10554 10042 
-19.236768 6.908444 -37.170872 -70.155761 -1.555428 -20.129579 44.371890 96.968075 -354.848219 179.698153 -35.906977 236.477365 49.224876 83.181923 307.069182 -464.896303 10555 10043 
14.784384 -38.297121 -50.482585 -37.916720 -6.871928 9.986575 6.437694 102.359701 -444.248694 192.574755 34.820620 196.115702 234.619716 290.484561 246.975067 -751.341726 10556 10044 
17.270168 10.560683 17.369898 -95.847232 -42.864726 -27.801861 6.630662 114.682408 -17.556365 -85.316480 9.531275 -42.099001 72.916962 82.085664 88.516613 -108.078667 10557 10045 
