50.786752 12.680444 29.367258 -37.277140 -9.143061 -0.371434 -23.303464 -22.739355 -42.182101 -2.980976 6.642711 -4.766110 20.746409 3.489815 49.745190 -30.694937 19754 19498 
-15.319409 33.269808 21.381726 -10.215167 -6.279601 4.416120 1.025883 -28.279360 94.214604 -7.422633 -12.248719 0.602845 -29.939892 -31.201640 22.230774 -36.235339 19755 19499 
-77.488072 37.465842 10.984881 -2.133296 13.704685 31.540197 5.803857 -19.878094 70.485381 19.027398 18.775458 29.414100 -31.186120 -24.555658 -16.482691 -65.477867 19756 19500 
-48.246469 4.495123 -18.376641 -22.784047 -6.053524 16.577220 58.512281 15.876056 -144.816146 38.865643 88.310324 85.103353 40.202838 25.015156 -34.767682 -97.913486 19757 19501 
51.471514 -18.264861 -43.227249 -40.769120 -11.133239 10.547860 1.557911 49.817184 -100.929152 -0.213199 29.805625 33.817106 24.671642 22.967365 -11.203477 1.084091 19758 19502 
85.246230 -44.551947 -46.045687 -38.966253 25.375276 23.663830 -30.285074 25.563624 95.002684 -65.968424 -78.795170 -52.297633 -12.590210 24.865326 -29.209946 118.993374 19759 19503 
19.402428 -18.666815 7.204500 0.280889 23.956283 -13.732694 1.126314 -19.570905 45.830574 -67.025030 -47.793185 -5.877797 6.226798 40.234281 -52.864993 81.269353 19760 19504 
-25.324585 78.944037 52.537822 24.045593 -12.359349 -46.564355 -24.303647 -46.975514 32.762590 -16.336315 -12.614999 20.701329 -9.606477 -17.511538 -14.667440 17.272849 19761 19505 
-71.937751 132.247302 55.410994 30.104280 -38.356655 -37.881065 -9.157831 -60.429273 37.634608 43.093497 17.563062 42.501879 -4.600196 -50.524548 -13.436268 -72.232034 19762 19506 
-114.079589 107.053832 52.120961 24.708123 -59.002780 -46.894062 112.546987 -76.453472 -6.545318 55.045642 39.439308 66.057550 23.829903 -28.561441 -32.821477 -116.444166 19763 19507 
-113.253874 72.795652 46.009054 12.549069 -38.726564 -9.738535 95.380671 -65.015475 -12.202510 27.946554 10.890584 30.063763 37.454242 -3.764335 -31.484544 -58.903755 19764 19508 
-72.317694 50.554296 43.868652 20.195619 -3.615794 33.790207 -70.777857 -1.697430 -32.754944 60.203953 4.388382 1.483802 31.694250 3.068617 -46.855906 -21.228155 19765 19509 
-27.858553 12.060993 38.669595 8.440298 23.078541 1.731092 -126.989365 70.867400 -34.698611 85.302082 2.884653 -25.851091 -0.464434 -5.362391 -22.931944 1.121737 19766 19510 
-25.590309 -31.832376 15.777342 -0.691218 34.212850 -43.979733 -53.600291 105.703735 -86.528788 89.297087 28.583638 -10.864913 -7.403334 3.117825 11.485173 -27.686687 19767 19511 
11.940267 -101.188158 -3.646267 3.715857 19.044954 -40.309884 69.178941 41.264288 -122.466946 69.286049 50.394424 21.664777 0.708959 12.827205 20.174051 -52.588519 19768 19512 
1.417102 -132.668886 2.362013 25.602721 17.406854 19.107343 72.908049 -6.135197 -61.424433 -24.644789 37.536863 17.014785 20.211172 26.242809 39.960798 -54.897205 19769 19513 
-24.536636 -69.647067 14.675030 41.478709 3.719492 23.367209 -21.535776 32.479039 104.923395 -70.033185 -0.385397 -38.192230 5.596649 -7.011953 29.987145 -24.884424 19770 19514 
23.354660 -53.918299 5.516475 12.084488 -21.791936 -11.395619 9.103393 37.046837 154.374988 57.854477 -28.836938 -70.519358 -23.509379 -57.662829 -12.902092 -18.798869 19771 19515 
18.234959 -14.838446 -1.760460 -7.449324 -28.645515 -18.657805 41.061824 12.054768 81.016690 144.619344 -27.389595 -26.742968 -15.697830 -60.121019 -54.154650 -41.529972 19772 19516 
-4.803474 45.054966 13.701635 6.771477 -41.156590 -37.040155 61.936848 -44.464706 5.589133 69.906119 26.392342 39.640299 15.628936 -30.504434 -68.027848 -58.624548 19773 19517 
13.561974 -11.721139 -15.733563 13.372670 -13.710188 -5.276140 74.969145 -55.462760 -31.321909 -52.868423 64.515751 76.011591 53.094633 14.585608 -58.873062 -65.144188 19774 19518 
35.224223 -5.772439 -50.493090 25.208954 46.145875 19.435122 -56.127884 -13.620761 62.285090 -78.568790 38.232429 46.330798 22.642073 1.738552 -70.326241 -22.333911 19775 19519 
15.287200 37.339142 -23.278978 48.990406 88.784439 38.762194 -219.904072 14.019670 39.830117 -57.865291 16.073971 -19.507891 -19.573782 -8.860554 -2.058348 51.961777 19776 19520 
27.917029 18.244753 -12.593803 14.189421 60.660213 53.894076 -187.226167 24.914478 -50.014277 -154.948065 3.597436 -36.790402 -23.314966 23.688958 59.869323 177.911993 19777 19521 
99.369276 -23.649698 -21.705620 -24.064942 -19.783573 11.500632 6.901673 -28.567748 -25.230656 -165.368994 -51.514391 -59.158873 -46.064752 42.349005 74.199120 230.789542 19778 19522 
79.497652 -84.775604 -38.517804 -36.110301 -1.894906 57.201186 68.711368 -44.111591 -24.987762 -65.271300 -59.468273 -48.884761 -44.624115 63.027141 93.792317 86.416752 19779 19523 
5.704336 -69.494235 -42.198085 -44.068842 34.255896 78.203609 47.075452 -9.478131 50.193836 23.872935 -29.260500 -4.923315 -20.450903 45.019871 4.240267 -68.692190 19780 19524 
-59.297994 48.897454 -5.595652 -18.565965 24.693744 28.777393 -2.941322 -15.967657 116.473052 88.410951 -39.371535 -14.391838 -26.887226 -13.389886 -39.005149 -71.838369 19781 19525 
-110.154476 153.239743 5.565711 -6.821409 6.741225 -6.012891 -28.658895 -13.899008 -110.089777 30.735398 1.906384 5.287952 26.240856 9.140636 48.462612 -11.684061 19782 19526 
-45.050607 136.534223 14.118132 20.049207 -38.829195 -80.766287 -37.150329 31.094857 -157.901191 -142.230827 32.250082 23.349142 69.201763 49.355304 101.392051 24.583677 19783 19527 
113.103227 7.327649 13.577726 33.814615 -44.246405 -93.563386 -95.540695 65.527268 5.079789 -183.932102 3.136124 7.506227 22.762056 12.768433 79.402830 53.276642 19784 19528 
168.372527 -63.188641 -20.599379 -6.498352 -14.871135 -28.805827 -55.608876 21.199684 -25.374922 -18.143853 -40.076241 -16.724653 -8.680574 -17.512202 73.503689 53.008756 19785 19529 
-17.835491 24.835214 -8.373013 9.894280 1.030478 6.137986 11.659837 -27.349291 17.604009 42.672470 -27.735346 -13.795232 -20.305450 -29.248905 36.171538 -5.363083 19786 19530 
-111.209334 89.361127 23.568514 42.772231 -5.556725 -20.697007 -21.019224 2.780416 65.301704 17.961946 18.408374 6.449970 -4.617802 -26.751367 -12.324849 -64.427975 19787 19531 
-13.082267 3.809329 22.842575 6.945108 -41.724352 -57.247903 49.576683 28.880827 119.426517 27.078273 9.150994 -14.078504 -28.741199 -52.448798 -12.606443 -47.780841 19788 19532 
12.102705 -79.636238 12.370043 -28.559900 -30.674044 -8.947417 112.728390 10.616462 61.676903 27.534078 -15.181849 -32.462972 -41.390049 -39.181674 10.647412 28.358150 19789 19533 
58.953748 -15.727708 22.240521 -25.414749 -12.737998 0.188009 13.767485 -41.269308 -108.626869 42.254245 -17.540569 -2.591331 9.254136 10.470899 19.373109 47.406379 19790 19534 
-14.453525 7.834267 30.772785 -11.662712 3.546137 4.645100 15.136500 -35.818551 -58.758380 30.017495 -14.450748 37.407386 12.991379 1.195012 -33.216973 24.814829 19791 19535 
-114.487554 -71.137279 -16.669385 -5.424410 52.209530 66.614074 52.531191 36.363833 28.974624 27.482705 -7.612744 33.893772 5.148923 4.627673 -79.207497 -13.307456 19792 19536 
7.790475 -63.476408 -43.179776 -24.403370 34.581372 39.229699 11.905399 37.552609 58.335463 45.846206 9.257272 4.728743 10.928735 12.052895 -86.225467 -54.923847 19793 19537 
54.471653 -15.139756 -10.026942 -24.894751 1.876138 -3.930996 -15.317593 12.962248 -14.246334 50.640939 -7.260831 -25.411136 2.815097 15.008908 -18.793829 -2.752814 19794 19538 
-22.038342 7.224212 12.206517 6.377249 -11.895068 -31.624542 23.821340 15.928634 -75.982377 26.879824 -39.379666 -42.538456 -5.762366 33.101019 46.127154 57.554868 19795 19539 
-52.660038 16.159500 9.853597 8.897353 -21.997407 -48.159459 86.820327 1.086127 -41.236628 -2.736849 -68.643403 -47.590847 -5.033584 46.130820 50.876855 68.233636 19796 19540 
-67.176246 6.841771 -1.177156 -8.538728 -18.284357 -30.850438 151.824879 -32.639725 0.417629 20.137917 -33.927865 -5.916502 -5.431932 14.310993 -20.612327 31.022086 19797 19541 
-70.724970 -5.970423 -25.260273 -26.626688 -9.102763 18.846886 158.014024 -39.175793 14.541955 37.240250 28.427587 31.993150 -6.356196 -26.272935 -68.972692 -10.601119 19798 19542 
-51.651916 39.739042 -8.770659 -18.220494 -1.077456 47.919680 18.330560 -26.268757 24.161829 -6.359123 20.370002 -2.092116 -2.100714 -21.353086 10.238707 -22.865500 19799 19543 
-3.576265 28.268890 9.529796 -5.701408 15.435212 43.428105 -59.014335 -28.369994 -10.408055 -5.202150 40.662636 25.438332 40.103967 15.757443 -1.480437 -104.871736 19800 19544 
87.544207 -70.945329 -18.003313 19.138115 53.534455 74.336007 -96.649697 -48.954444 -24.274266 63.092761 62.368237 69.892903 55.033646 16.516606 -85.719672 -156.910214 19801 19545 
88.411597 -90.189484 1.622670 31.311782 63.471741 96.301235 -115.183212 -75.746331 61.556560 132.078485 49.775626 60.640776 7.956668 -48.762162 -115.166945 -148.079007 19802 19546 
-13.179368 -102.161357 18.264748 7.914659 56.514617 80.853337 -35.725097 -12.481538 22.466028 117.823502 58.298152 58.363795 -4.995363 -67.669060 -72.879331 -111.407725 19803 19547 
15.645908 -77.344032 -2.169198 -22.729003 0.429147 1.921289 9.814151 74.431738 -20.749646 -38.796562 23.342899 4.942272 4.959058 -16.487105 23.407325 19.381760 19804 19548 
84.986937 -25.872874 -7.535325 -45.129894 -48.808553 -61.783038 6.995349 97.147398 30.178395 -87.448108 -23.286985 -49.904746 -33.651047 -10.473697 54.605453 119.980735 19805 19549 
86.110982 -27.751586 2.416553 -8.726925 -27.739886 -43.431833 -58.880276 78.002970 -20.066610 -42.956670 -13.332105 -28.817535 -38.167637 -4.693931 45.121072 102.913417 19806 19550 
44.599406 32.992383 14.024788 7.302202 -23.386911 -26.053632 -25.452991 -24.025243 -54.437716 -60.731755 -15.022736 -4.440521 11.654911 38.094964 20.645353 64.237500 19807 19551 
-45.703629 91.209626 12.896850 -9.953743 -29.506560 -32.848889 89.041215 -75.134870 -23.902122 -27.942771 -6.802416 12.868529 -4.638940 14.503746 6.466234 29.447739 19808 19552 
-101.988507 55.962113 -10.046495 -52.100246 -31.537496 -23.127618 147.285942 15.552306 -37.960526 18.838779 16.784595 28.498533 0.027495 -5.248523 -9.896098 -11.044254 19809 19553 
-104.397859 47.717986 -16.553108 -65.565914 -4.910732 8.139255 44.655297 90.915074 -58.477525 38.908358 12.378568 16.419710 27.865649 11.630744 -46.945056 -1.780449 19810 19554 
-71.807615 122.583990 29.974899 8.289286 14.638682 -29.228264 -133.049278 58.598299 -10.169006 1.002922 7.413265 -1.148564 0.143841 20.616003 -49.302696 31.444235 19811 19555 
-59.285297 157.636384 51.062259 76.797502 -12.186692 -53.849063 -160.301719 0.126626 26.244436 -52.338190 -5.243715 -27.631620 -8.428692 37.391184 16.109396 13.897201 19812 19556 
40.274117 96.113095 27.121539 71.235423 -41.518648 -33.438500 -147.435401 -12.351626 -4.844440 -33.547151 -24.902729 -27.244220 -8.063079 37.300873 86.022903 -24.722159 19813 19557 
132.827210 14.932935 40.082745 86.922367 -43.882664 -58.977388 -146.319648 -25.585557 -11.810661 5.886040 -33.790402 -18.517608 -5.932620 26.718165 57.799757 -20.352672 19814 19558 
48.231804 -83.840545 36.394164 104.026237 -4.227721 -22.358746 -40.185506 -38.039686 -27.615014 -32.883681 -53.036360 -47.906121 11.535069 33.531868 83.894007 32.480233 19815 19559 
-44.787482 -91.919649 -8.164221 56.987427 12.897016 1.931916 110.851188 -37.796194 -4.119568 -61.518207 -35.341831 -32.511302 8.653594 12.658108 56.807203 55.372002 19816 19560 
-5.877243 -33.036828 -44.454422 26.510653 -19.037899 -23.887545 102.249338 -2.466055 51.104963 22.848544 26.682993 8.784525 -13.118069 -37.583316 -63.558105 4.838463 19817 19561 
77.726671 -53.068049 -77.125133 -36.884350 -24.685722 0.764034 39.141370 74.131179 42.997744 42.790785 44.881032 -3.527248 -30.084446 -48.029431 -32.265878 -16.762558 19818 19562 
99.820522 -34.986298 -45.927278 -54.150767 6.796003 22.330249 -47.142198 53.259766 87.541669 -41.341712 18.140672 -33.901645 -38.926595 -34.943307 31.270377 12.160541 19819 19563 
21.866716 -24.037374 7.446080 -27.702456 37.504191 57.971984 -72.468581 -0.580559 144.400157 -84.496679 13.654516 -1.624236 -34.527722 -34.120145 -32.810765 29.524875 19820 19564 
-52.351245 -14.117971 25.850326 -16.202352 28.556673 51.286993 -5.205707 -17.816716 34.959093 -17.713251 70.432964 88.999118 5.012003 -39.097336 -110.846129 -31.746463 19821 19565 
-19.304101 9.575546 11.109259 -4.946935 18.936389 31.605764 -0.880178 -46.095743 -207.629298 59.104664 87.492219 125.087257 57.913981 -6.514712 10.560838 -126.014949 19822 19566 
-26.864714 -11.473601 -37.103887 -27.753007 34.421596 55.384966 50.185187 -36.796539 -194.574658 73.059353 14.968308 59.153680 50.391914 16.603942 99.789527 -119.392066 19823 19567 
-60.307898 -29.750436 -67.245889 -39.412095 28.093226 30.408628 130.890805 7.323660 60.867765 60.159559 -26.637345 -17.050921 -17.750581 -24.793031 3.429246 -38.224693 19824 19568 
-14.235918 -40.647787 -48.822765 -24.846237 23.572085 3.609806 109.043532 -7.672716 133.675239 -6.323870 -22.423720 -41.622678 -57.727801 -31.782571 -35.022058 61.227460 19825 19569 
39.275847 7.741197 3.911974 12.156430 10.996716 -23.566011 33.246274 -83.762428 64.075290 -6.371232 -42.044897 -56.889021 -39.578527 7.921222 -30.543810 103.430976 19826 19570 
36.601234 35.169990 5.956970 14.448037 -25.324314 -70.130889 62.865714 -59.586742 -44.395118 32.675974 -61.324578 -57.925472 6.010714 46.302278 8.876681 69.779521 19827 19571 
-23.445966 23.698750 -25.031531 -26.518267 -45.663848 -70.133255 182.824777 -15.730660 -38.251376 -15.850924 -46.848458 -23.633862 21.961594 37.410524 32.567363 32.645140 19828 19572 
-80.221817 56.140433 -5.753031 -33.564480 -5.625941 -10.993977 82.559045 -2.540232 59.679938 -20.099271 -10.361917 16.397901 -1.309137 -16.351826 -32.851790 4.896101 19829 19573 
-34.249121 85.386473 48.067670 10.474085 44.023793 34.369668 -214.215467 26.142899 119.717222 3.373808 -2.243361 5.839682 -23.238107 -36.823219 -59.113417 -7.512609 19830 19574 
22.684362 53.408485 67.070971 25.528485 23.720908 24.031487 -211.589774 -4.854924 9.240852 0.658215 32.803344 30.337621 7.426599 -5.854833 -15.987075 -58.624723 19831 19575 
49.270908 -23.830670 32.562287 1.699862 -4.535252 17.207582 -53.625379 -18.749338 -162.966466 -64.048685 54.754074 71.327619 61.841553 53.131715 53.880089 -67.919899 19832 19576 
38.333995 -48.901176 8.351633 -3.129996 16.270251 36.965156 -59.551273 11.661411 -23.631599 -140.185370 -39.881196 -3.951484 37.411764 48.758309 73.133326 48.346250 19833 19577 
-16.652012 -7.985078 1.609052 -15.717238 31.178002 30.036232 -48.087937 25.618980 52.750586 -93.300212 -79.486661 -48.844185 6.212013 18.305438 57.504849 86.858172 19834 19578 
-18.528082 9.452477 -4.205644 -39.308613 5.868801 -1.501078 29.342095 18.880044 -27.270777 -40.392311 -33.708511 -39.955057 10.894242 13.500027 63.832248 53.100138 19835 19579 
2.029807 -16.152562 -15.530680 -46.962121 -21.992879 -2.603162 87.186714 14.024883 11.652173 11.507937 9.003262 -28.162708 -11.970063 -18.272748 15.428248 10.813901 19836 19580 
11.628965 -16.692036 -6.853530 -12.377819 -9.456582 14.436851 -3.260166 22.574317 52.606555 89.832127 21.269730 -16.309593 -33.881639 -42.113829 -28.231225 -43.172128 19837 19581 
10.019485 10.136375 6.762720 10.364330 -10.441548 -5.423854 -58.683017 37.265508 22.191600 84.750576 21.105183 -10.828901 -7.604030 -33.462779 -9.366634 -66.785015 19838 19582 
-26.601553 15.224119 -5.441376 0.578033 -27.542344 -33.448635 42.952207 34.279549 -39.130523 -7.014353 17.322323 10.443465 65.152671 16.449349 -2.819219 -60.403713 19839 19583 
-72.349830 45.408267 3.646333 2.841639 -27.534113 -25.920239 53.384041 20.523901 -35.069727 -56.762983 -19.870504 -16.669343 74.309311 39.953101 0.310905 13.799241 19840 19584 
-48.949021 35.947469 7.542152 -9.204036 -29.731872 -8.676382 34.889916 18.181775 -4.965889 -8.375132 -27.072319 -34.596037 13.751387 19.364033 13.322100 28.571856 19841 19585 
44.365041 -47.781783 8.821323 -3.181789 -1.252801 5.521719 -4.936936 -1.554775 94.707207 35.864096 -19.311806 -28.151155 -25.128385 -3.561049 -48.198980 -6.219928 19842 19586 
94.587414 -86.415723 12.348914 -6.728547 25.048620 8.912170 -17.877755 -29.875093 123.698469 100.269069 3.992293 -10.154405 -37.096686 -31.513687 -99.850236 -49.344816 19843 19587 
31.347769 -57.927476 6.457248 2.762985 20.361017 -8.831310 53.073535 -47.243768 43.753983 108.532967 35.511722 18.164441 -24.688730 -42.669275 -52.104582 -86.500526 19844 19588 
-14.278422 -58.594006 -7.006538 22.499731 10.919016 -13.943458 74.745515 -14.341840 -1.229151 40.122997 60.521549 39.390134 12.041381 -19.367672 -50.755588 -80.723650 19845 19589 
6.722331 -55.902661 -9.455605 26.104019 -6.067210 5.564318 40.444972 -7.410165 -136.833810 8.485184 89.254680 79.208057 42.613491 13.002598 -64.201855 -31.528345 19846 19590 
-5.669901 10.083700 28.455747 64.420454 -14.014690 6.098843 -30.913123 -58.461030 -104.075883 -16.870472 46.784888 46.731591 -4.411864 -6.880729 -46.265060 84.987529 19847 19591 
-58.216072 29.688105 6.370514 19.469750 -0.721163 13.700380 16.175550 -26.467065 5.517801 7.508349 -23.582214 -34.110084 -26.910461 -6.514030 -28.002604 106.093243 19848 19592 
-63.244943 35.529369 -27.274384 -25.507745 6.923851 10.407110 73.750537 -10.583796 -74.787103 63.848774 -22.836497 -7.928179 12.142328 18.721619 1.769557 9.069501 19849 19593 
-28.308036 24.630866 -4.751023 16.736572 1.513309 -22.099412 27.428001 -15.150276 -149.893337 53.728753 -30.298519 33.733593 34.799829 44.266944 85.526549 -71.863812 19850 19594 
17.912352 7.064936 20.419575 53.291072 -0.343948 -25.302671 -82.978687 9.937370 -64.844681 -64.682978 -54.839319 -10.187192 20.472718 29.606691 128.667616 15.807145 19851 19595 
60.386963 6.254315 34.391044 53.784117 0.492578 0.524092 -164.962615 9.129506 88.960216 -102.055402 -27.671909 -26.056818 -66.933234 -75.818182 41.964347 167.610981 19852 19596 
38.801333 -18.403774 -2.931283 3.540314 -1.483996 24.105849 -104.028063 60.399621 125.995768 -4.202768 -8.460155 -15.880997 -96.742884 -100.792614 -2.446901 102.530551 19853 19597 
2.564471 -2.747621 -24.378013 -35.334661 9.009378 22.491490 -42.907493 71.302449 91.794669 2.282932 7.613854 -4.095374 -37.249554 -10.626859 -19.312352 -30.407315 19854 19598 
-9.079447 24.217549 -9.893975 -36.613068 0.406493 12.664658 3.515960 14.781831 -111.303103 -40.897901 50.915475 41.670623 60.113490 108.732640 -46.319159 -62.912064 19855 19599 
3.172561 31.507400 2.269521 1.016553 -26.808277 -11.829630 30.363662 -29.691788 -167.158705 -38.989967 11.055463 19.403506 65.137239 104.571364 19.791342 -13.810241 19856 19600 
3.479579 27.803588 3.181631 19.352782 -19.583164 -32.669696 23.296541 -24.861262 89.842471 11.847037 -76.548079 -69.541254 -57.445941 -26.439504 70.359288 57.925981 19857 19601 
11.807231 21.022316 -2.263109 25.488367 18.295476 -29.573441 -59.842748 15.065909 136.564506 50.242688 -28.119693 -40.178595 -58.014137 -49.251929 -0.516459 -10.726381 19858 19602 
31.185244 2.868500 8.791034 37.629176 17.879459 -23.726804 -95.081523 20.454914 58.463625 40.810368 28.262458 28.593909 -12.751200 -13.988245 -62.032219 -67.358696 19859 19603 
8.239397 -27.286218 -7.683890 0.946948 -13.260929 -0.238899 32.854469 6.429122 -7.147598 4.764906 2.106490 11.094656 -19.367606 -10.314747 -12.818594 31.682494 19860 19604 
-26.593826 -36.657938 -19.171578 -13.537198 -8.191054 15.060757 87.490702 1.600134 -47.671056 -99.762115 -58.754934 -33.078120 -1.572847 39.760110 69.262069 131.816893 19861 19605 
-19.478634 -16.348622 -11.361129 -13.783961 -11.302183 -11.160526 51.767449 31.667606 57.906225 -128.962389 -95.188318 -54.292350 -16.100848 74.262816 4.981937 157.392927 19862 19606 
22.281814 15.789406 -3.646461 -22.488882 -10.085538 -19.468309 -9.578708 27.196677 56.062114 -46.208502 -67.304522 -53.234050 -35.468019 43.704565 -1.174175 103.622588 19863 19607 
-4.631060 41.687275 -4.210809 -38.254957 0.223042 -3.419422 0.158304 8.447628 -43.897729 10.144074 -30.727170 -47.648193 5.547936 31.869818 64.540440 10.170824 19864 19608 
-64.317001 39.704861 -20.232737 -51.047483 -1.413775 15.139848 86.348740 -4.182454 -47.718137 -9.610043 13.760259 -18.004142 41.452752 16.099382 50.110040 -46.090110 19865 19609 
-59.464554 32.801269 -34.102426 -67.046071 0.897268 45.910452 97.121088 -16.117026 -1.884404 -40.255052 25.052786 10.319397 24.788762 -22.950027 57.778373 -52.849836 19866 19610 
-65.478946 76.180201 -13.944871 -57.763473 21.047631 57.914437 -20.307167 2.352188 33.023359 -19.152551 24.962453 46.453043 2.013976 -40.768213 5.253369 -51.785436 19867 19611 
-38.661665 81.815221 34.235357 16.960977 35.237941 29.754797 -167.075310 7.732682 20.495963 24.711563 7.740953 56.818050 0.057428 -33.182889 -16.751192 -59.889876 19868 19612 
63.319190 -16.423630 15.599169 27.766210 6.239099 -10.441680 -89.258970 3.200612 -16.389103 76.835561 11.155677 38.025419 26.219607 -16.269429 -13.752519 -105.825212 19869 19613 
109.662585 -143.753209 -25.335824 16.164858 -6.580525 -30.808892 80.676672 -0.025666 -81.288538 93.663130 57.159036 42.763250 50.421626 -7.329235 -18.476487 -136.912782 19870 19614 
124.089990 -135.706788 -22.897621 27.277181 -26.410914 -55.080090 95.240760 -6.512518 -96.666933 71.503205 56.543085 39.213997 23.584873 -8.617514 -5.416967 -80.143746 19871 19615 
68.033512 -27.012318 10.948244 28.222092 -40.474033 -45.929675 53.152689 -46.940510 -16.520482 7.447227 22.090997 5.512009 -17.632136 -12.375533 13.821801 -2.343883 19872 19616 
-86.458415 16.999792 40.672905 43.909112 -19.412599 -27.137699 97.704922 -66.278018 49.049648 -36.521674 2.481719 -25.482283 -25.096517 -6.838554 -3.086937 45.494598 19873 19617 
-131.601608 52.903549 11.257085 -0.704105 -36.991881 -33.804348 200.133688 -61.192379 56.516905 -24.452581 27.653792 3.480000 -0.086647 -0.785122 -70.457419 8.131072 19874 19618 
-104.255818 115.668125 6.720698 -37.956331 -34.779702 11.263730 89.774408 -46.435110 59.168942 11.518772 35.741599 17.445760 19.245048 -11.587990 -73.844645 -57.687485 19875 19619 
-74.100078 93.676209 43.474394 -10.349543 43.384662 89.238524 -173.449081 -11.875088 35.450740 33.054723 20.572211 -6.431202 29.605829 -7.625485 -42.092045 -62.534772 19876 19620 
56.107267 2.864001 72.286132 33.129898 102.925791 86.701100 -322.217838 -31.796352 -36.561093 14.589943 31.705577 20.051858 31.993328 16.041372 -23.798995 -54.021990 19877 19621 
141.759931 -62.444989 80.298521 63.524113 87.942735 20.187008 -306.694268 -24.573052 -30.890961 1.789931 13.648033 18.320492 -11.751399 1.480545 -11.800518 19.203877 19878 19622 
114.086459 -164.155610 -1.621465 8.481918 24.641792 0.749265 -64.329972 82.147612 -14.348759 -1.391763 -4.338669 -9.755074 -35.968491 -14.784608 24.694325 55.893039 19879 19623 
108.166924 -139.772386 -72.013711 -44.187308 -27.664858 -11.992797 49.985719 137.478418 -15.911221 -2.432193 22.102269 -12.928524 -15.145189 -15.651754 18.968492 20.998121 19880 19624 
20.844807 57.031657 -35.577255 -25.056506 -47.643708 -52.219315 25.386365 57.233955 4.650926 -19.602775 36.799588 -11.426918 -0.313100 -16.013874 4.491187 1.414966 19881 19625 
-131.907970 164.671778 4.720976 9.913794 -56.008600 -69.881235 93.141358 -14.650101 57.226786 -7.642016 26.626750 -2.867444 -16.689363 -40.777985 -6.002625 -9.874104 19882 19626 
-132.118899 118.091093 -6.110001 22.039576 -53.750813 -57.890706 125.051112 -15.311362 76.328628 12.181754 29.062076 14.027718 -22.862593 -64.561685 -51.368842 7.192944 19883 19627 
-9.003543 -30.899141 -30.461632 20.312375 -18.046852 -6.799713 65.328884 9.569622 -33.111736 47.942087 35.636192 48.703674 -7.838003 -40.751173 -33.018897 -17.562144 19884 19628 
70.117967 -154.292896 -38.153568 23.902676 23.483163 38.994430 12.820900 23.127327 -89.218270 57.517470 12.024617 46.404044 2.256036 -12.563146 14.548789 -30.969540 19885 19629 
54.744659 -124.025042 -15.739884 18.063403 28.356135 51.603359 -23.273243 10.270612 -46.785250 -24.085684 -28.890483 17.026404 37.443475 20.651715 34.415962 -9.776139 19886 19630 
21.061342 -60.982680 -1.855583 -1.968445 44.441814 64.860672 -109.036632 43.479513 5.120999 -68.862007 -42.026004 3.075088 57.789941 52.036952 18.627310 -25.762277 19887 19631 
-10.319140 -42.981202 -25.357229 -33.981426 32.650826 49.515849 -19.994718 50.467041 3.252006 -27.382981 -18.083827 3.643046 26.378109 38.940895 4.042420 -30.789667 19888 19632 
18.671890 18.332900 -18.058417 -33.421837 3.774834 -6.606580 14.353067 2.954143 -51.457951 28.593609 -23.066510 -15.512079 -11.123770 17.098231 22.697659 32.770811 19889 19633 
4.147369 22.721385 -23.553620 -46.673805 -3.293125 -16.727302 74.420973 -11.041875 -39.706579 -13.922786 -30.306735 -27.457866 -15.299632 33.803953 2.581402 90.308243 19890 19634 
-13.368955 10.804490 -53.014666 -81.702233 -17.239930 24.247446 137.786450 -7.512602 83.025083 -83.800552 -38.661716 -36.803613 -26.419661 27.445590 -1.094828 76.309698 19891 19635 
45.160440 29.216300 -39.305653 -89.844994 -7.661084 25.500521 52.529602 -15.595131 122.317284 -10.083459 -44.035449 -51.011216 -21.996819 14.123075 -5.534062 -3.779354 19892 19636 
32.642691 5.416299 -32.373251 -58.189379 12.391115 22.641349 43.721917 -26.250741 -9.095993 49.733491 -4.015647 -20.361662 12.599848 29.191636 -2.217629 -55.834043 19893 19637 
20.829774 20.334289 -27.063015 0.876022 6.455166 -25.516761 8.586946 -4.502420 -38.503577 26.833039 8.424728 -13.267895 -9.989196 -6.889495 19.295131 14.097265 19894 19638 
0.754136 55.888822 6.351217 41.682976 -28.087693 -76.357756 17.442055 -17.673757 67.201204 85.904620 -4.670962 -19.571975 -69.225462 -83.527573 -42.005566 65.895713 19895 19639 
-34.230895 67.949007 45.921088 57.304544 -28.849563 -30.418322 -25.803982 -51.871877 112.445050 70.273681 -16.352576 -11.586147 -58.643684 -86.633169 -59.514965 50.011811 19896 19640 
-117.379652 121.176720 82.579388 67.264539 -0.486336 4.285364 -99.082146 -58.357877 112.822736 -3.565832 -11.285957 1.050643 -2.239939 -38.634155 -43.339452 -14.808044 19897 19641 
-160.094852 126.667304 67.212569 53.169923 -8.452646 1.280205 -24.914824 -54.867680 -31.692395 -6.446372 52.492985 48.078198 47.568868 -3.185171 -3.872035 -102.944077 19898 19642 
-60.996733 48.962641 11.936554 10.706820 -25.791688 -19.217619 55.045081 -20.645056 -267.957275 25.605300 91.433788 72.553143 62.517799 28.595387 75.976043 -88.724184 19899 19643 
35.144370 -53.505409 -0.804494 17.214747 14.444786 -11.841087 -1.298059 0.645146 -167.160086 2.456567 -17.283124 -7.537436 13.895633 65.687527 77.669676 32.271244 19900 19644 
31.536670 -117.703918 17.574320 26.006271 61.649692 15.864350 -40.976926 6.049540 -9.467651 -96.872846 -84.193807 -49.892901 9.886850 102.104603 45.139392 83.296360 19901 19645 
-10.771649 -11.511439 13.131607 21.388110 21.427649 4.372746 -6.062031 -31.974992 65.302893 -87.887026 -55.972339 -31.140904 4.066972 50.403376 6.734534 48.492494 19902 19646 
-41.235522 19.010985 -2.564653 15.368559 24.621306 32.602393 61.035982 -108.839051 146.761896 -13.295246 -31.929890 -31.789893 -34.341567 -16.420528 -43.304913 24.320142 19903 19647 
23.240608 -102.494800 -33.649758 -39.349529 22.327603 36.397735 111.822198 -18.294056 -28.956462 -22.915575 10.838144 5.681143 25.740616 29.810649 -3.444391 -16.754125 19904 19648 
184.765647 -106.996830 -46.906423 -70.994620 -65.240542 -61.678114 62.429123 104.621758 -68.101176 -92.152029 17.841111 23.514197 45.911134 39.255563 45.766076 -12.034876 19905 19649 
118.797811 -57.964796 -14.063636 -36.422938 -59.740399 -76.359855 55.383893 70.369920 48.756234 -87.793120 10.080448 4.155883 -16.015953 -18.798654 33.855966 25.759195 19906 19650 
18.111650 -36.499499 -9.047944 -11.212416 -28.533719 2.876298 18.690763 45.614867 63.152997 -25.008663 -17.449249 -13.809053 -21.369989 -30.023059 -2.696404 47.203418 19907 19651 
3.637800 21.608078 24.911877 29.931677 4.836228 38.133523 -143.776935 20.717753 42.329074 41.198437 -30.314088 -11.191816 -13.992957 -17.096810 -66.374598 55.442758 19908 19652 
-35.234728 92.155130 65.725815 82.348539 31.703609 -0.344518 -243.949619 7.595773 3.320045 67.882653 -24.825738 -20.944460 -20.101253 0.761571 -47.076741 40.983922 19909 19653 
-41.835404 93.322442 44.237085 47.108000 -0.634314 -37.236812 -108.043465 3.082468 -64.365950 23.322647 -5.544057 -12.197999 4.962642 15.337611 12.930157 25.554949 19910 19654 
-65.638838 8.782855 -1.123515 -14.531288 -10.954060 9.746257 72.813874 0.904714 -41.107273 30.183941 11.998485 12.353827 10.364724 -3.219865 -2.863710 -17.710130 19911 19655 
-31.189967 -44.575960 -29.054006 -24.885151 15.341173 62.130599 21.755953 30.477360 53.192222 20.738808 10.157644 14.435159 7.797041 -16.753868 -18.535141 -71.031866 19912 19656 
4.490247 -27.413911 -9.280473 -9.761282 24.791378 33.849668 -35.769527 19.093899 2.493110 12.439111 27.612104 22.652675 13.269053 -17.874988 -13.125971 -47.465094 19913 19657 
9.716742 -28.204775 25.587804 6.047681 18.720710 11.372665 -47.296258 4.055431 -15.273915 56.554591 22.434329 8.407459 -18.339519 -42.459903 -41.847079 30.524038 19914 19658 
18.944681 -43.621424 26.948097 -1.625834 27.594364 17.396201 -55.159210 9.523125 19.854526 37.946721 15.979080 15.057906 -41.276334 -49.534424 -32.478229 34.450754 19915 19659 
23.316538 -38.740201 -8.457069 -30.930917 9.750837 -5.440071 22.541034 27.959849 10.718439 -4.335592 15.700149 16.702198 -23.155386 -15.375448 5.553557 -5.807918 19916 19660 
-10.104169 -29.247666 -34.324707 -31.356538 -11.027288 -12.399515 105.794568 22.665315 -49.952181 -65.519997 1.421211 -8.814300 39.836530 44.754587 31.101234 7.172918 19917 19661 
-32.841093 1.405044 -38.760802 -15.662095 -16.234002 -8.539462 114.953430 -4.321018 -68.033826 -52.328546 11.515883 11.728701 35.809305 34.325771 18.912038 8.070675 19918 19662 
-23.094738 33.408224 -7.520013 5.244325 -3.277100 -6.242700 41.160911 -39.678909 5.282376 9.367486 10.445930 15.783310 -7.519995 -11.087644 -7.794756 -14.476708 19919 19663 
-42.776472 51.520004 17.961203 32.750030 2.456314 -9.610195 8.333424 -60.634309 24.643694 74.986405 -10.688947 -14.528327 -3.157615 -15.045631 6.040281 -62.249859 19920 19664 
-45.021229 69.083893 7.372988 31.393083 -9.861348 -17.411981 -11.700885 -23.854519 25.846602 121.026488 36.083069 10.382342 -1.083900 -32.462437 -13.991144 -145.801021 19921 19665 
-0.018996 38.202075 -18.136223 -15.287445 -18.845199 -14.853790 -4.362432 33.302010 15.179577 30.572379 29.335326 22.719538 0.166518 -28.732318 29.262613 -98.503633 19922 19666 
57.916588 12.201319 -10.346713 -32.762649 -31.299383 -19.024012 -18.155352 41.470202 -25.685891 -42.637649 -43.610688 -16.954733 -6.427600 8.526194 71.228762 55.561606 19923 19667 
36.125899 3.121224 39.255074 4.980689 -21.285572 -2.243042 -24.770078 -35.184193 -25.213053 -41.649883 -50.323604 -33.287358 -5.705741 38.070594 9.511381 108.597665 19924 19668 
-44.406832 -4.215681 52.777950 44.944772 9.687261 30.726235 -12.792146 -76.721559 -13.931822 14.314531 -31.078855 -10.943168 -15.885324 16.644286 -6.209548 47.089901 19925 19669 
-48.825500 -7.819881 31.147335 57.946271 22.853687 11.715956 -18.133678 -48.884189 -1.310362 54.926475 -22.049798 3.956271 -10.660430 -7.983280 10.394960 -27.273836 19926 19670 
-9.004065 -13.158978 16.818013 25.787397 0.766536 -34.649075 37.603723 -24.163551 7.461437 36.928807 -7.790731 6.615861 5.586849 -10.591932 15.414636 -53.624926 19927 19671 
-0.634014 18.616124 10.871521 2.047981 -36.564541 -43.471336 42.878157 6.256108 1.956692 -18.890727 41.390988 46.600477 11.118022 -16.607937 2.020252 -67.587767 19928 19672 
-31.247613 71.575359 13.360517 14.310426 -24.672306 -1.512257 -43.062917 1.248791 -12.276497 -43.147156 53.664847 48.802330 32.649812 2.717896 -0.512686 -81.898545 19929 19673 
-37.063877 81.960155 3.579396 13.932964 14.282857 25.120166 -98.436621 -3.375040 -17.254650 26.847434 25.313278 1.297669 21.348268 -15.153635 -23.694482 -18.703882 19930 19674 
18.746008 1.924767 -29.110154 -23.616666 10.342555 10.375076 -17.975778 29.314192 32.359976 40.411651 11.191534 -18.841203 -22.955090 -57.323347 -37.960701 53.117181 19931 19675 
63.861809 -28.263719 -15.277763 -27.560238 8.500176 -8.758776 -7.617396 15.115908 107.538220 -32.352599 24.064347 -18.769501 -1.959854 -32.847610 -8.277511 -37.395492 19932 19676 
-18.789227 15.490470 19.958541 -9.556705 26.782832 5.093576 -19.371487 -19.608000 98.340058 -93.829967 81.034933 45.852078 65.868137 -0.997667 -27.041975 -169.225597 19933 19677 
-128.818101 83.620607 27.425917 -7.791658 21.955697 34.728836 -23.824734 -7.296564 -25.690388 7.928724 119.480708 113.122953 55.243168 -23.428055 -54.122249 -192.534862 19934 19678 
-59.710829 68.946959 -9.960181 -13.298760 4.163811 8.248641 -22.115578 23.725936 44.217329 88.273352 30.002927 7.195786 -44.145517 -48.352239 -40.900080 -36.291558 19935 19679 
59.659594 -115.278256 -102.557468 -58.881236 13.907708 10.564190 120.627430 71.958038 -54.011002 -23.031544 -113.571240 -117.615177 -61.242553 75.509258 64.070162 229.892096 19936 19680 
128.711427 -233.391032 -129.338565 -97.450767 4.087597 35.340536 211.395741 80.645063 -288.306873 -121.290346 -160.437276 -109.531069 12.810678 226.990159 135.112136 304.652590 19937 19681 
114.795458 -127.494975 -79.230794 -87.388230 -15.319075 23.121917 164.899216 6.616482 -69.759256 -152.771221 -161.821618 -120.068785 4.345182 164.872196 84.829026 250.374475 19938 19682 
100.616371 21.193750 -18.288229 -23.137352 -16.142219 -23.372318 6.702585 -47.572589 83.728381 -94.524264 -111.612160 -120.552494 -1.879877 56.599263 46.527279 141.713871 19939 19683 
83.353106 73.415050 41.161738 34.194425 -29.881748 -58.029129 -115.823205 -28.390235 61.343150 -17.975254 -10.028105 -35.795424 -18.222502 -31.585623 11.213771 41.049986 19940 19684 
70.613888 61.759554 41.060067 30.818970 -24.034267 -42.633278 -144.383625 6.798690 21.800221 8.388001 52.510621 40.645190 -42.892582 -88.548179 -23.001009 31.097736 19941 19685 
135.476294 -23.119202 30.478393 17.097593 -2.529686 -21.126562 -123.564296 -12.712534 7.791532 25.370176 14.425917 25.507830 -0.987535 -46.218088 -15.489888 -10.399944 19942 19686 
49.849566 -77.507935 34.291126 22.698186 25.149211 19.248546 -69.239361 -4.489341 1.730382 48.363365 -39.089843 -10.860703 13.250381 -1.136150 20.115201 -32.372634 19943 19687 
-182.565080 -24.841543 42.131705 54.639147 52.040703 44.879864 12.667507 1.047697 -17.143050 78.082964 -39.214257 -11.479410 -6.815126 -4.805516 -11.122329 12.496723 19944 19688 
-241.912102 74.283968 47.490379 55.784866 35.241332 17.489248 38.002340 -26.380030 -0.403748 85.335810 -7.826528 2.896849 -24.917902 -23.460851 -64.965062 33.341430 19945 19689 
-39.941319 81.051505 30.092387 10.279654 -47.396810 -84.170064 61.670214 -11.585567 -15.445807 39.249631 36.564145 26.769444 -19.789872 -22.268215 -25.274543 -19.804784 19946 19690 
42.361429 -8.006723 18.738878 -6.076664 -68.645892 -87.588049 132.858488 -23.641467 27.108022 -6.552925 29.410627 20.312161 -2.819455 -16.925221 14.086957 -64.620166 19947 19691 
-29.177678 -58.665232 -24.164952 0.098305 -8.248270 31.664206 58.499222 29.994399 9.111567 14.887565 25.995858 13.567309 4.044263 -5.573850 17.252082 -79.284794 19948 19692 
-2.680176 -27.826040 -44.757678 24.575064 25.379765 67.025775 -121.661465 79.944754 42.198971 21.263564 54.836952 32.006785 -24.362310 -29.883524 -27.627979 -68.432460 19949 19693 
16.513414 48.834997 -18.473007 49.461202 53.447267 55.106793 -199.378628 -5.512037 74.327757 -45.195792 55.942028 48.497514 -38.632535 -44.637535 -55.048360 4.746924 19950 19694 
-32.509403 69.131857 3.106274 27.277136 35.246877 24.577097 -68.451981 -58.377856 -15.549601 -95.539332 20.316495 30.128047 19.418541 11.747722 10.427799 19.050330 19951 19695 
-43.132763 1.155679 6.361464 -11.403949 5.657017 2.061692 41.049070 -1.748211 -77.587411 -66.850520 24.431990 23.572064 67.720486 42.217539 16.021487 -29.525635 19952 19696 
-12.359283 -15.252126 -11.392169 -58.142105 -4.352436 7.390708 62.965041 31.142368 -50.971666 2.731078 36.152522 45.634779 16.831916 -5.694602 -29.235684 -15.448342 19953 19697 
-7.818553 -16.694556 -14.935428 -63.046066 0.600421 45.024493 15.182665 41.687025 9.437886 28.340033 4.674306 28.871364 -31.914620 -39.974712 16.016581 -15.450838 19954 19698 
7.590928 -59.183454 -23.316599 0.240821 21.141332 43.435406 -54.907893 64.999460 3.707849 -27.260398 19.664285 38.433646 4.914419 -24.927211 73.323776 -87.856366 19955 19699 
58.447319 -58.987592 -47.947410 49.126508 1.014856 -14.609344 -15.698911 28.654573 49.901106 -12.261340 71.558022 81.359660 13.672829 -62.323690 24.886593 -166.793180 19956 19700 
59.599736 -80.709232 -52.992002 20.693303 -18.222856 -11.712009 70.693739 12.649320 74.566080 70.908140 76.656394 67.795076 -5.959136 -95.143815 -37.779730 -151.043008 19957 19701 
36.417963 -59.270751 -33.830009 -30.336666 -20.988223 -5.841579 109.308990 4.540275 18.081475 144.843744 7.542056 -0.615528 -13.301879 -48.093873 -82.428364 -26.027629 19958 19702 
11.974323 31.866498 14.370458 -17.706504 -14.307999 -19.936276 31.361983 -37.622483 51.173057 115.715211 -56.684805 -48.628786 -12.234651 10.468305 -151.325412 91.517081 19959 19703 
-44.111607 68.562061 56.258640 9.274473 -13.748124 -28.135350 29.165490 -77.265583 39.388375 -77.886803 -25.619943 -13.284266 41.318624 64.718359 -109.211950 80.577604 19960 19704 
-39.861447 15.124577 48.921598 11.176490 -29.356440 -39.241969 126.218706 -92.981515 0.788640 -148.759448 16.798372 -0.995794 62.217983 61.054568 -10.192675 19.088354 19961 19705 
-55.025551 -44.239454 22.246800 -15.991662 -34.023355 -29.952273 242.819637 -85.834141 -36.397987 -25.124147 16.428082 -11.820610 26.667114 20.214270 7.982246 2.051032 19962 19706 
-63.824329 19.311284 26.058574 -21.688993 -23.773168 -21.122492 144.586945 -59.547821 10.323055 17.786974 -8.809060 -26.939631 12.888885 14.593490 18.581713 -38.425426 19963 19707 
13.419693 141.664238 83.026642 37.173521 11.822142 -26.535770 -261.411031 0.840565 87.432746 14.752189 -9.699150 -50.725907 12.212785 13.036052 42.742790 -109.751504 19964 19708 
50.944945 119.276499 85.998659 49.495683 36.640725 16.520430 -407.799681 48.922740 -77.014426 43.942535 35.585274 -2.843687 17.989493 37.941924 15.951501 -71.552614 19965 19709 
35.810859 33.398936 26.228264 7.864371 59.111717 46.425888 -247.326494 38.486459 -130.423454 -24.604765 -21.208176 -26.354640 21.319467 72.951994 18.334351 89.985224 19966 19710 
-32.522075 10.006674 -12.106271 0.312191 81.546153 46.903638 -149.465850 55.325539 -36.168797 -75.681179 -100.650544 -86.030894 10.426217 57.337216 68.746697 162.021283 19967 19711 
25.833802 -11.835249 -26.422201 -15.643292 15.189872 11.368813 -78.167976 79.676232 -15.715089 -57.982075 -61.603809 -38.589995 -11.321604 10.396084 43.123719 131.692767 19968 19712 
64.154263 -34.644784 -12.463209 -37.111868 -36.380144 -31.487342 72.301357 15.631726 21.417896 -33.355547 -32.989406 -2.714878 -25.518898 -7.172772 16.993730 63.339874 19969 19713 
-8.482741 -74.109992 -24.969043 -27.945939 -13.386994 10.739480 149.033098 -10.877869 58.010030 30.385895 -28.671240 -4.091497 -36.850503 -14.637568 5.993776 -10.138893 19970 19714 
10.428651 -78.199411 -44.926123 -4.135208 6.109360 28.489570 82.560173 -0.327013 19.447102 105.015837 -7.458915 15.016417 -50.682655 -33.573085 -11.487584 -36.277119 19971 19715 
-20.838237 -34.378820 -34.141617 28.035920 1.429561 5.270070 63.285560 -8.662438 -28.645342 119.288400 -3.800454 23.936153 -60.571010 -44.525175 -17.752371 12.069799 19972 19716 
26.277059 -19.187957 -25.463989 29.419464 -27.433688 -33.928335 49.103978 1.213469 -57.655507 70.467581 -11.023588 12.500273 -46.844419 -28.459861 5.198611 55.816910 19973 19717 
58.379186 -28.732706 -20.911623 -0.188063 -31.193971 -41.592956 58.051754 6.188379 -50.787393 -0.935420 -28.177595 -21.565904 -1.929559 22.541979 43.371171 37.482721 19974 19718 
-9.473888 -4.342883 -27.685061 -33.134057 -25.322180 -26.796301 117.266627 9.487744 -35.555729 -29.117773 -12.791791 -25.346613 31.665883 44.766854 27.932240 -1.553071 19975 19719 
-35.756920 56.920128 -28.354509 -42.018242 -31.499701 -15.841381 97.190263 -0.639638 -20.135062 4.610345 25.401978 5.814360 36.779358 18.471372 -5.257322 -65.685029 19976 19720 
-16.613742 74.037107 -8.956657 -31.690054 -18.947017 0.335929 43.486278 -41.651842 7.911950 20.679821 53.921128 26.092254 19.837691 -16.739079 -26.381624 -85.322140 19977 19721 
31.477033 26.468574 -7.886727 -33.328481 2.952812 17.104459 -8.497420 -28.290249 9.273376 -6.760793 34.961716 22.731078 5.925704 -23.221550 -4.848524 -38.061006 19978 19722 
48.596583 10.706572 -3.472057 -29.281594 -5.396413 42.334798 -71.676847 8.188957 52.946349 -11.701047 13.835078 9.643692 -22.413792 -40.808229 3.624713 -5.126764 19979 19723 
15.694910 18.983581 5.952834 -38.004713 -7.225634 21.715233 -10.280533 -6.835679 0.662262 31.355205 56.771609 33.821397 -20.685441 -52.673416 2.364528 -51.616144 19980 19724 
-59.477695 -5.088416 5.922128 1.564597 31.364138 26.339009 -18.800367 18.176607 -7.823646 48.483162 42.898468 16.426297 2.078174 -36.916281 9.640142 -74.786316 19981 19725 
-24.842078 -26.332949 -3.641507 58.147961 66.097232 43.672053 -180.787419 67.686707 17.341332 44.496243 17.716791 -14.208370 5.237470 -18.672374 3.823254 -55.734347 19982 19726 
61.766389 -14.120926 -29.869139 28.419900 5.639855 -10.479356 -119.487349 78.130626 -26.908491 19.136779 42.208811 20.483969 14.858349 -16.254461 -4.320298 -49.204658 19983 19727 
61.981447 28.363210 -7.006941 27.436224 -67.650488 -53.096299 0.546331 9.426517 30.899474 -8.644435 35.234106 44.484802 -11.642482 -46.234632 -31.130121 -12.966711 19984 19728 
-38.994437 26.028718 28.157155 41.466362 -21.859522 -16.855169 38.016919 -55.960027 82.142462 0.058987 -12.016939 13.075398 -30.710491 -40.838896 -46.035587 34.325065 19985 19729 
-122.972203 -5.139114 29.781567 40.426449 31.857107 36.266471 17.250594 -27.470871 67.348714 10.666608 -29.434042 -29.274078 -40.350927 -21.517331 -25.042991 67.604047 19986 19730 
-67.533323 -13.142259 4.706505 13.398044 24.345292 27.124294 19.282796 -8.181348 -52.417180 14.824002 30.793335 -13.633115 -13.194479 20.792045 1.538662 11.296730 19987 19731 
4.343214 2.260533 -8.059076 -16.945681 11.252091 -18.362583 68.555310 -43.043809 -118.700434 -52.721722 42.119405 9.276121 43.755466 73.783386 18.351394 -15.863616 19988 19732 
-39.883373 11.444786 3.132300 -11.620895 8.548470 -29.211619 110.467612 -52.877282 -23.269127 -130.953152 -18.295538 10.340299 36.436874 55.101533 24.570669 46.068442 19989 19733 
-68.505413 18.443596 1.080796 -24.621546 -16.631316 -9.789193 119.426815 -19.403738 34.941682 -91.954753 -36.037698 20.213367 37.883184 25.515558 -6.316173 15.754833 19990 19734 
-29.961256 28.795035 12.271566 -10.078043 -13.598735 3.702632 29.603119 -20.734318 -6.994162 -19.933539 -21.692217 22.713271 48.508943 18.008498 2.477229 -43.088022 19991 19735 
10.679144 -35.684250 5.930988 -2.333487 8.471157 -3.442662 35.627542 -19.248431 -52.583815 7.819718 -37.693941 9.567536 15.091417 11.439080 61.955972 -15.595967 19992 19736 
73.962134 -93.214047 -0.766020 1.172438 3.376612 -16.895349 35.805543 -3.441310 -103.617730 -19.226415 -79.546181 -36.517092 9.228678 47.887152 98.423645 83.367944 19993 19737 
89.587351 -68.712665 0.740954 -1.034344 -14.922961 -19.483653 16.208600 -2.383283 -94.620296 -26.637483 -92.783284 -57.017507 -11.132938 47.781546 61.197930 173.212032 19994 19738 
56.132693 -24.023722 21.337995 8.085004 -7.003233 -2.452872 -41.077385 -10.998480 -29.648206 -12.712575 -66.837746 -31.270781 -36.877785 25.401211 9.780877 142.165005 19995 19739 
-6.857391 50.210984 67.228569 40.724286 15.333209 4.248621 -141.167301 -29.720977 59.993161 -42.136990 -9.981368 -7.047704 -9.029999 30.774116 -16.914075 -5.657141 19996 19740 
-54.658222 97.334806 54.180486 25.484349 -4.095466 -13.314972 -100.892101 -4.038880 177.504797 -38.275286 28.987521 -14.094946 1.512792 -3.520421 -44.884549 -107.229909 19997 19741 
-42.200705 42.975258 32.988074 15.186315 -13.604132 -19.290775 -40.605276 24.551241 162.369714 -29.127208 12.319754 -26.331262 6.281221 -17.677505 -37.236169 -70.598547 19998 19742 
-41.714695 -35.235992 31.996552 14.967890 5.880607 -7.609201 22.247499 9.467341 102.152277 -44.956325 -15.836589 -17.994684 0.618833 -15.524554 28.436715 -36.895673 19999 19743 
-30.624451 -46.298416 30.872631 12.783655 2.602476 -8.324545 29.149859 9.838791 70.596672 -24.413124 -13.630397 -7.790074 -1.620050 -4.202632 21.860711 -40.801106 20000 19744 
12.988942 -32.387738 26.066411 -3.945084 -30.847414 -14.198580 12.651289 29.672174 104.364818 14.347577 -1.296574 -4.065610 -20.536618 -16.405238 -85.699851 9.291496 20001 19745 
10.469063 -38.938684 -10.222857 -14.558016 -15.043581 23.145653 10.963460 34.184963 9.965780 13.747997 18.456943 -13.747963 -39.587186 -21.284861 -65.269854 97.719143 20002 19746 
-5.012666 -23.768948 -52.295469 -6.075572 33.143603 61.935760 -9.844944 1.918237 -201.173909 4.808401 56.025216 21.123262 5.654820 21.958027 -12.134750 103.738934 20003 19747 
-6.845128 -26.626670 -89.625950 -55.889208 9.461251 54.386927 133.397156 -18.258378 -131.891822 0.348994 24.428752 21.470474 7.695544 19.349612 30.517336 28.081111 20004 19748 
-0.648134 -7.813424 -77.810900 -70.909375 -2.085914 14.905072 142.426048 1.936626 -7.924156 8.844514 -15.091350 -15.086301 -1.034334 2.095709 47.436516 -19.240597 20005 19749 
26.095149 42.926759 -38.876123 -7.889454 41.614352 -9.058294 -110.575787 55.763398 -37.661506 58.959677 18.477334 13.985920 7.058217 -18.850348 -9.043652 -32.925642 20006 19750 
62.995220 30.917571 -24.908875 3.436507 15.573604 -19.471097 -158.448234 89.905304 -37.459041 74.422665 43.424975 39.197000 -13.020862 -45.316994 -31.143389 -30.104354 20007 19751 
60.654550 2.407112 -9.086957 -14.131647 -8.564612 -26.617073 -17.746649 13.085276 27.535679 43.388079 21.490073 12.405185 -3.365628 -35.405824 -18.713659 -47.333903 20008 19752 
18.360554 -29.470854 -9.934319 -20.028370 9.594267 -11.799171 75.811073 -32.533180 52.274203 -10.702673 -16.500225 -22.400104 12.631751 0.037586 23.409721 -38.750260 20009 19753 
10.426508 -34.264854 -5.563813 -18.154225 4.157640 -15.974392 62.982077 -3.608941 39.802095 -11.312620 -18.251634 -12.900126 4.984488 6.072209 18.537576 -26.931988 20010 19754 
-1.051220 9.721435 13.817192 6.422315 6.004686 4.471026 -42.202766 2.817332 35.849300 30.995424 -8.796617 -10.521854 -1.631248 -15.393758 -34.681654 4.180408 20011 19755 
-10.272715 49.839137 19.043877 23.362207 23.463661 22.123872 -113.927210 -13.632829 -5.914523 47.137009 -11.308538 -18.674362 0.333091 -18.248495 -50.920741 57.596558 20012 19756 
35.136097 31.630881 20.263858 36.726846 11.943499 -8.377325 -89.671688 -37.652169 -18.343253 52.597672 -19.430618 -18.214783 -9.567301 -12.360830 0.917541 24.401572 20013 19757 
12.053946 13.633600 14.664012 34.713903 -7.504613 -1.550755 -29.289679 -36.720414 21.773355 -0.724651 -57.155442 -38.234590 -7.704084 0.366017 33.894559 47.784836 20014 19758 
-93.777466 101.508524 13.358972 19.120620 -2.257735 6.742029 -28.077081 -16.617863 -2.607130 -30.073414 -80.911038 -33.323930 23.752848 19.109552 59.675288 44.377824 20015 19759 
-65.272343 115.398428 17.425467 4.598609 -29.032548 -13.563981 -43.329893 13.776261 -19.159005 16.885327 -29.128135 9.293955 40.187408 23.130614 36.594516 -77.804679 20016 19760 
-3.378063 20.395345 27.928348 14.980975 -19.618637 -15.639281 -36.735639 12.066952 2.049073 57.945960 42.999650 34.284785 30.221034 8.206245 -44.297841 -131.408906 20017 19761 
48.174639 -52.627677 31.137758 25.938158 -16.692634 -15.993963 -25.295887 5.359606 -11.698518 71.737684 92.217773 58.177549 2.898458 -22.233416 -72.596331 -118.503199 20018 19762 
93.396672 -54.347248 -7.123768 -1.089761 -41.461989 -20.438737 -0.116647 31.181478 39.083278 80.254953 100.259074 68.953529 -41.229265 -75.503971 -116.834233 -54.983366 20019 19763 
17.305099 5.464350 -18.795773 -3.868647 -15.145848 -4.060809 30.578021 -11.476393 71.542706 59.258603 47.165301 31.150821 -62.670772 -67.969500 -51.420755 -27.056405 20020 19764 
-62.464960 0.780209 4.518443 2.657006 3.687122 19.357914 87.299430 -55.835164 -47.836226 6.393096 30.941726 33.095045 -25.911875 13.343354 80.336662 -90.361782 20021 19765 
-107.575996 -56.746513 -30.056256 -40.422396 -5.347622 39.527212 151.167210 49.454360 -186.885045 -26.166828 42.194025 23.476637 25.525094 52.900075 125.694253 -56.738211 20022 19766 
-65.291398 7.803281 -26.906509 -52.178185 -32.375638 23.848474 49.059981 96.039995 -111.434024 -59.393922 -1.445077 -22.353084 23.659864 26.934650 60.963119 83.068474 20023 19767 
51.810169 98.784205 42.581479 10.461850 -15.076659 -35.132915 -131.624371 -21.803759 1.165815 -63.303902 -26.866756 -3.903778 16.305788 10.951952 -26.081051 91.731931 20024 19768 
138.821056 -39.160209 38.390908 35.461054 23.450956 -70.376671 -48.205469 -78.381625 6.765164 -24.582465 -7.363042 20.193327 15.957816 17.099039 -5.217587 -22.852251 20025 19769 
49.140571 -119.594321 -11.065271 2.153217 31.319670 9.595626 79.997849 -41.547341 9.490584 4.845195 10.666122 18.285562 1.651025 11.248109 -40.094697 -16.091899 20026 19770 
-5.907124 -47.368328 -36.005159 -29.195278 21.537796 75.709423 27.087353 -5.858683 -54.985861 -23.656617 9.805412 4.408176 9.378312 0.713264 -70.228782 124.566097 20027 19771 
23.855130 -33.165665 -19.560008 -15.672453 13.598094 3.795869 -8.577991 35.727025 17.512918 -133.153858 -6.725429 -30.375213 -6.933085 -26.304674 -18.685657 204.664996 20028 19772 
-29.769159 -28.185187 -9.305307 -17.030206 0.756230 -17.742579 47.536737 53.739471 72.651718 -105.739799 10.651435 -16.921573 -26.532871 -40.800804 -2.844069 109.535965 20029 19773 
-32.950650 -17.430552 -12.627688 -29.127596 -14.130037 11.124708 109.384970 -14.243155 63.785682 -24.383597 -12.069524 -26.809041 -18.810459 -3.580923 3.589365 18.278496 20030 19774 
-46.454361 -47.312351 -5.330095 2.036010 3.903858 30.833674 110.766490 -48.443224 103.740655 -52.412890 -55.768458 -56.437169 -9.912371 52.890291 5.951406 11.948536 20031 19775 
-41.771289 -57.911441 -3.169381 15.397061 2.991979 42.065039 79.505914 -37.107882 51.131131 -38.791059 -62.018120 -45.934779 -6.223228 71.015263 12.561398 18.259393 20032 19776 
-68.014580 88.135353 23.788831 18.457200 -14.032295 -17.264395 -10.308770 -20.761344 20.557193 -11.823759 -54.538857 -45.884735 2.276673 47.659388 33.018248 8.735848 20033 19777 
-111.720128 168.285300 22.750617 27.284100 -8.556212 -47.009715 -61.139968 10.106006 -24.368695 12.075335 -2.037390 -7.450518 28.612313 25.270111 15.132334 -47.233489 20034 19778 
-11.670561 53.553238 -13.314470 12.073869 9.320710 3.591196 -54.401807 0.847826 -38.876365 -6.804250 -16.936961 -11.376990 59.256585 31.844397 19.924638 -37.031055 20035 19779 
140.500747 -85.921875 -20.436780 -20.020287 25.481175 12.778236 -44.977838 -7.403379 -14.069599 -35.188111 -52.400214 -31.771278 63.521325 26.528430 26.678495 16.700953 20036 19780 
166.640290 -141.182165 -17.954994 -22.307379 -0.021006 -17.138675 28.365258 3.598671 -1.018193 -20.947315 -31.531398 -10.817885 37.888120 2.136703 8.586784 15.703183 20037 19781 
118.164764 -52.718039 -4.668839 3.882403 -12.423840 -2.781205 -61.001388 11.546145 51.820143 9.930524 -13.134061 -5.781134 5.009889 -24.580196 33.205386 -56.470552 20038 19782 
41.454773 33.295972 4.999033 12.249475 11.984819 3.326213 -114.967312 7.657026 98.755199 62.457556 7.798996 19.610777 -60.552228 -68.552051 10.546718 -70.064966 20039 19783 
-92.245882 33.849011 6.836274 15.981867 46.447895 3.516573 -53.953689 39.567950 -35.128680 95.311202 24.616473 41.838435 -65.038441 -36.332216 -17.010265 -8.256507 20040 19784 
-100.904970 23.861047 9.869324 38.739277 48.803116 -1.594722 -78.436859 59.663788 -244.304736 49.181995 24.288032 39.597389 14.605869 57.541255 66.550357 -7.460163 20041 19785 
11.957905 3.463547 10.501762 43.735258 -24.495915 -43.220532 -25.563422 23.621398 -63.759379 -24.071596 1.138962 23.063246 -2.602533 29.150201 57.623200 -20.542102 20042 19786 
15.659176 -16.502399 21.975032 35.181422 -16.916737 10.608045 -127.744909 77.740368 98.897184 32.910698 19.175076 36.210590 -59.418978 -45.271626 -57.613419 -24.889526 20043 19787 
-40.631076 -19.522256 -6.395109 23.047015 10.262444 53.972972 -116.461672 95.727682 41.086723 71.841989 43.970427 47.782022 -61.905936 -66.802962 -78.867270 2.895007 20044 19788 
-44.479474 9.205172 -17.246522 24.031846 -18.630205 8.214041 73.241556 -34.336414 125.290464 5.076359 10.512009 10.877090 -49.664094 -64.607960 -42.884432 5.400564 20045 19789 
-43.833022 0.238906 -34.499986 -20.548959 -25.271655 29.352425 181.233433 -86.671142 33.045725 -7.628578 51.138933 51.614264 -3.040881 -10.451346 -14.732047 -99.946069 20046 19790 
-0.145801 10.054734 -42.332495 -59.074521 -21.446767 10.207235 181.278903 -78.541287 -107.000678 -2.068624 75.139784 71.412476 33.833749 31.614924 37.720881 -140.652512 20047 19791 
30.608172 83.842490 12.291702 -14.951094 8.461237 -48.676063 -41.131675 -30.444769 -29.162221 0.926372 -21.322875 -21.475619 19.226386 28.223857 65.310283 -41.726184 20048 19792 
51.317869 54.475624 14.426539 -9.538124 0.224701 -29.415616 -102.378135 20.887142 -9.609807 29.289278 -41.458735 -59.138504 10.570812 18.459631 20.034871 31.852453 20049 19793 
75.180451 -34.439898 -1.382161 -17.541921 -15.597046 10.946652 -25.703419 8.537342 -66.390100 30.686941 5.111303 -33.261164 6.243868 9.639012 6.445141 41.525000 20050 19794 
45.458367 -38.101803 -7.882919 -18.095843 -3.285933 6.008036 19.990925 -4.090832 -31.161479 34.991608 28.911383 -3.729799 -11.208044 -17.407334 -28.395450 27.999115 20051 19795 
15.837005 40.066890 -4.319964 -26.198761 -21.156267 -39.243981 60.975865 -25.960788 -0.358325 34.368276 33.739423 -1.875910 7.350542 -24.864670 -62.076618 13.717281 20052 19796 
1.592998 78.053790 8.714555 -5.508179 -43.519779 -66.358217 48.831124 -21.806293 21.713058 -6.887095 24.196644 -11.229513 20.672058 -14.204778 -49.826048 15.565674 20053 19797 
55.288214 39.916250 24.941964 12.592396 -34.680907 -49.347094 -13.288383 -35.422440 28.417692 -30.274512 9.854173 -10.007287 15.951309 -0.620039 3.087899 -16.409234 20054 19798 
76.030959 -2.012819 74.071182 27.195566 -9.365196 -24.319782 -82.046462 -59.553447 64.445468 4.939591 11.976231 -2.926039 -2.487972 -18.630472 -9.454004 -47.862802 20055 19799 
-71.703516 -24.586323 81.576649 32.076432 25.729045 27.090453 -17.772829 -52.409911 91.067967 52.197086 -4.932218 -19.449231 -34.148078 -57.586139 -60.531680 33.382292 20056 19800 
-137.226805 -15.191217 8.302669 -16.575496 29.187315 60.369694 78.108214 -6.974375 -90.440690 108.191402 -35.939749 -24.420177 -27.182579 -22.843710 16.207514 76.427990 20057 19801 
-117.241140 -6.844629 -70.448953 -51.369443 11.231878 42.443620 175.575572 16.653095 -239.788852 83.871341 -7.364238 11.530300 39.245685 61.246587 55.816522 -4.557345 20058 19802 
-132.404795 -47.573964 -108.856909 -57.661034 37.942385 75.309383 219.239209 14.005725 -175.921594 -107.340851 -10.560749 4.992526 100.827025 118.640756 76.856475 -7.493588 20059 19803 
-11.376355 -32.287881 -62.003782 -36.048225 57.334234 85.920298 -50.386669 48.848381 10.527579 -170.915390 -39.936908 -16.114260 56.395315 52.370516 51.544920 56.128229 20060 19804 
89.576535 -9.509640 -2.536743 12.601666 37.651806 3.846060 -210.521068 78.891383 122.348316 -62.072649 -50.320611 -34.139332 -14.107283 -36.913980 -11.167057 86.372597 20061 19805 
66.234378 -23.805074 21.929795 27.281152 30.625649 -66.580382 -117.542528 61.857009 108.090594 -17.874169 -27.070371 8.722686 -19.700958 -43.076692 -13.571848 4.480759 20062 19806 
34.128954 -16.230616 61.840082 44.391225 16.431675 -72.950267 -56.405366 -11.205687 40.955648 -25.522978 43.074930 84.069378 28.730286 -11.691101 -41.848225 -117.767938 20063 19807 
-11.162933 5.098679 60.484452 32.845454 -23.297403 -35.027262 0.045616 -28.986602 41.807254 -94.830259 61.935447 72.522532 64.404727 29.648295 -62.526402 -112.961594 20064 19808 
-47.540121 73.008461 33.681120 -13.024091 -39.185682 11.813255 -24.057799 5.304856 93.656123 -102.363546 -10.480764 -0.405560 11.988740 2.917583 -6.407574 11.094998 20065 19809 
2.663263 68.186360 13.504446 -26.950211 -33.969455 -4.666042 -0.261557 -18.506805 125.060579 -3.378937 -83.034368 -62.720834 -52.147063 -38.099999 15.541190 98.779433 20066 19810 
5.285799 -4.971357 20.007059 12.686653 -0.397889 -8.143774 41.120380 -65.586871 119.634995 27.617304 -55.748017 -40.622179 -55.862942 -25.133007 -13.654321 43.768167 20067 19811 
-120.973675 -46.274254 26.191524 52.306162 24.251314 51.081507 77.492754 -64.075332 0.703441 61.722437 2.823954 4.738720 -56.228147 -20.159426 16.570434 -10.171414 20068 19812 
-111.907602 -34.520895 -4.667406 49.094822 8.997582 55.287066 67.524195 -29.807761 -73.459927 68.341943 22.783649 -8.882477 -44.505455 -7.000942 15.150647 27.572562 20069 19813 
-21.042730 42.072387 -14.538315 40.061253 -9.228370 5.284931 -14.734678 -27.874478 -6.801369 8.877145 18.254748 -44.234540 -43.903290 -8.830623 2.085348 74.552581 20070 19814 
-26.227448 72.503246 0.530862 39.992292 -20.924793 -35.613206 14.847714 -45.108667 103.126711 -38.019755 -4.671404 -67.149782 -40.740060 -24.620241 13.670639 58.403892 20071 19815 
-46.679996 -38.176063 -3.506816 11.136655 -8.159496 0.192674 83.741613 1.451428 -3.207758 2.415926 18.483355 -14.568957 3.749933 -2.946234 -5.256130 1.329866 20072 19816 
56.576178 -125.553012 -12.554401 -40.317643 1.672636 56.953571 -7.054654 70.277326 -161.401203 82.248998 49.557392 48.838668 -1.678382 -0.393738 -2.617087 -14.554647 20073 19817 
196.309300 -56.906083 -18.279780 -62.283254 -27.114391 16.590808 -125.879735 77.563135 -51.730555 31.128720 3.913987 0.471075 -10.139102 18.825487 14.801948 -7.271560 20074 19818 
169.963281 -15.400805 -28.432975 -57.389311 -42.919319 -30.506181 -38.695101 43.380411 7.854271 -23.888981 -12.617308 -17.941432 10.678158 48.209274 -16.474370 4.180388 20075 19819 
64.344488 38.363378 -13.742447 -30.102485 -31.090626 -61.578547 9.895318 23.910922 -23.950492 -39.435879 -17.310105 5.075926 22.761482 37.882406 -26.083686 41.060349 20076 19820 
-34.521521 107.914681 -30.869150 -30.471457 -10.861193 -38.227172 -3.230606 40.266418 3.319853 -17.848019 -19.710238 31.726220 17.785943 1.619184 -28.706515 11.813572 20077 19821 
-88.693625 76.777190 -30.152785 -20.248960 21.496064 15.787737 -12.796947 37.831325 11.133658 35.973264 1.473158 48.484237 15.318069 -21.244544 -51.576216 -39.561626 20078 19822 
-42.974834 55.496748 19.407163 14.784023 28.391775 -28.966402 -50.335528 4.197055 -25.818577 69.601314 -7.283653 12.434786 27.231348 -3.301960 -16.824987 -56.038273 20079 19823 
23.091358 -16.005086 -0.534137 10.840475 8.644864 -31.708077 -9.989293 15.659895 -75.062550 55.629631 -1.885900 2.693897 30.135535 10.521311 6.841447 -28.873372 20080 19824 
34.837396 -37.197190 -37.578595 -11.456964 -12.169309 0.827082 16.958066 45.779515 -55.805793 -31.501652 -1.524218 -0.613392 28.967046 18.031165 29.187361 13.259483 20081 19825 
-3.189076 54.207475 -1.815782 -9.465895 8.035043 7.717486 -39.647053 -15.842199 42.610091 -47.442986 17.211436 11.553328 19.649704 -0.682113 7.657686 -50.557146 20082 19826 
3.754456 38.553977 27.890131 2.338425 16.428945 -12.054308 -5.998231 -70.913396 94.670055 -5.851000 35.327933 26.287176 2.793252 -36.367236 -23.186622 -93.673559 20083 19827 
57.024564 -32.416556 14.172784 -13.639609 -7.003019 -38.764953 76.823481 -56.196691 -25.849351 0.357567 39.250189 22.037099 3.509089 -25.420062 51.480587 -65.365117 20084 19828 
-57.115482 -76.472009 15.020094 9.328633 24.878742 22.738151 76.946315 -15.324444 -62.280348 -24.283378 13.138472 -18.090057 7.154832 -2.907240 66.051449 21.216270 20085 19829 
-124.547604 -96.652534 -5.471549 13.439081 37.689646 53.489931 67.162925 54.890106 35.391903 -38.485611 -35.466859 -65.699432 -13.500914 11.925896 18.915020 86.919996 20086 19830 
39.982397 -53.898005 -26.583934 -23.452444 -10.137160 6.766119 35.209149 32.113878 44.781801 5.785268 -8.117694 -30.356091 -22.588091 12.051169 -20.036601 18.480238 20087 19831 
137.947543 10.081134 -15.765476 -16.718820 -32.138233 -1.251525 -24.679175 -57.475448 -9.873548 59.368383 12.144436 9.501042 -22.882047 -11.771637 -0.807638 -35.678991 20088 19832 
88.401226 16.789426 -7.566233 21.428109 -11.102055 14.921642 -67.955264 -54.916850 -41.997385 25.838764 -20.576503 -12.672495 -5.830629 16.903647 56.059874 -17.725274 20089 19833 
27.624784 13.157781 -4.524951 18.246931 -11.385944 -1.328549 -37.330335 -4.459717 -29.667797 -13.160141 -41.990508 -39.435250 33.087603 58.508497 -2.483442 35.141039 20090 19834 
19.070105 14.277146 -5.482177 -19.686193 -21.974971 -11.402507 -7.730229 32.928826 -49.000129 5.834323 -28.428014 -17.068562 43.806340 65.433462 -42.836063 22.258643 20091 19835 
-0.887506 -21.912675 -14.341313 -24.755478 -9.658501 -0.325869 -13.956850 85.838192 -4.649542 9.249101 -11.835942 4.851514 15.371477 49.212349 -16.469165 -45.729793 20092 19836 
2.322598 -29.135295 -24.717841 -35.127061 5.699342 25.755658 -14.711775 69.914374 46.404696 -1.406134 -9.722209 3.334451 -7.562488 21.235691 -0.436983 -51.847023 20093 19837 
18.489426 -57.594233 -8.255969 -21.541713 27.682745 37.650199 -8.259380 11.828924 31.862444 -9.495978 -1.045254 4.962248 -22.872324 -16.719605 -12.407122 25.715592 20094 19838 
17.439146 -72.471552 3.892877 -9.546008 14.572256 12.884945 26.365688 6.862647 6.318648 -3.283054 14.264663 17.191375 -34.418163 -54.222910 -24.890171 79.039611 20095 19839 
-22.378381 -7.506464 21.497523 6.188742 -6.259957 1.958058 21.517623 -15.017144 -21.008114 19.618117 40.490090 50.489587 -41.020060 -64.304843 -25.618858 41.354082 20096 19840 
-63.515355 51.966234 48.538792 47.098065 5.325354 -15.044271 -36.829104 -37.539714 2.051809 -2.606231 36.687132 51.046150 -39.724401 -49.341604 -12.260287 14.147431 20097 19841 
-78.149093 38.743908 33.594547 42.635456 10.776285 -22.008123 16.871760 -42.464740 13.403933 -44.467307 3.130402 17.477774 -8.997412 -4.096511 17.182272 6.366849 20098 19842 
-92.490032 -17.628442 11.841395 38.015516 6.361045 21.992968 70.610051 -38.702502 -20.833856 -27.830587 -3.894682 -2.883082 36.542308 24.700260 15.503946 -21.304307 20099 19843 
-39.452036 -30.357417 6.701430 42.840111 4.441744 40.012770 17.002912 -41.189514 -55.927181 -12.084652 10.932852 14.574566 60.886158 18.863158 -3.198884 -34.046016 20100 19844 
11.371861 -11.661512 -8.242126 21.147772 -1.596515 2.993555 26.467674 -40.480710 7.595292 9.300670 -21.283824 -5.010442 22.223005 -16.535516 -38.056691 41.767506 20101 19845 
21.900396 29.329217 -21.787704 1.231806 -14.706900 -20.737958 15.774899 -11.003755 51.054173 20.017934 -41.013547 -34.508406 -12.288614 -27.119666 -23.201422 67.059547 20102 19846 
-16.616570 61.750463 -8.677080 -3.461696 -10.244655 -1.107292 -12.512363 -9.130808 17.250636 -4.576029 5.312725 -2.643762 -13.364484 -2.330779 -8.252168 8.603862 20103 19847 
-69.813137 94.611351 14.826149 -11.550727 8.556425 -1.063827 -61.756587 26.190354 11.129457 -20.427973 -5.308681 -27.142547 -12.014224 6.696241 30.406968 16.660757 20104 19848 
-56.291546 98.872455 14.796480 -23.014120 20.071010 -33.153668 -89.518840 68.238229 -20.238844 2.218999 -12.650432 -37.855887 12.204368 12.340914 46.580265 -2.599383 20105 19849 
45.444227 -3.715437 24.553202 -7.249247 8.623859 -58.591901 -31.210322 22.145619 -18.422779 26.029020 8.915284 -14.191062 9.782158 -3.298363 27.720896 -36.535153 20106 19850 
60.803980 -76.048894 40.732427 18.204760 -1.259663 -48.270856 23.066599 -17.228353 14.349230 8.367008 6.025550 -7.175640 -19.255004 -1.808094 47.815996 -48.319045 20107 19851 
7.658951 -42.164991 -6.785609 -9.663866 17.049554 34.210838 30.982743 -31.287620 3.277212 22.767958 23.655911 24.463173 -14.035383 15.839561 -9.393425 -66.575007 20108 19852 
19.808473 -20.607964 -23.275025 -11.619708 30.932073 78.444024 -31.883292 -41.798581 20.605077 8.404338 19.313668 27.122120 -12.183596 -11.442487 -1.017461 -50.801659 20109 19853 
-52.148373 -17.651474 -0.626169 -2.795352 16.366249 45.019724 16.855006 -5.019611 9.609153 31.558817 24.488714 17.227486 2.768062 -22.923265 30.933281 -93.662249 20110 19854 
-146.040163 58.580734 3.624044 -15.422961 3.129851 22.754190 51.401821 21.972483 -35.508220 66.408036 48.821257 26.500644 31.416466 -17.479311 16.083507 -136.242379 20111 19855 
-108.542760 160.553820 25.776594 -5.092480 -12.923781 -18.317525 -44.880221 3.426354 -4.400832 17.534997 33.071431 45.183277 3.397120 -21.363147 -3.513097 -69.909748 20112 19856 
57.852622 78.464312 20.823196 4.670297 -0.554716 -26.853577 -112.428056 -21.974078 35.364728 -10.938719 -4.635703 25.720995 -38.715799 -15.964116 -37.887389 47.056004 20113 19857 
157.088848 -138.451178 5.055785 38.376472 32.996437 2.308025 -86.145793 -11.228596 26.307653 -44.395483 -40.519607 -4.713921 -23.813962 -2.106055 -17.961504 107.202878 20114 19858 
130.609985 -153.772227 -24.552653 34.833388 -6.807039 -11.664811 10.801478 20.551880 -7.474829 -42.156184 -47.674934 -5.927325 -14.138206 4.491507 23.113127 89.766843 20115 19859 
68.013529 -15.785231 -36.998478 27.368754 -59.866415 -35.625540 46.266296 6.627084 -32.476476 -9.985191 -26.773485 -10.546968 -22.876838 12.759190 51.799876 38.099892 20116 19860 
-0.673807 1.670678 -6.131299 61.252390 -55.857784 -39.899413 45.402293 -5.763058 -8.928727 -18.076551 -27.441975 -17.019485 -1.108528 31.830195 13.579811 27.165260 20117 19861 
-10.677306 -21.411337 14.041488 48.797650 -34.511043 -38.343045 39.885479 2.218114 47.079277 -28.099637 -30.768548 -29.443513 -4.181988 12.253818 -32.416546 65.577136 20118 19862 
1.567654 13.448573 47.225737 34.470566 -10.344159 -45.601671 -41.751968 0.985267 21.063830 -14.899051 -15.323631 -27.712290 15.719056 11.864022 -65.129745 74.417809 20119 19863 
13.433819 15.398250 46.400032 16.494763 -10.904019 -51.618484 -42.584784 13.380423 -6.355445 -48.651171 -14.581597 -26.992410 35.919382 18.716931 -20.464794 62.409104 20120 19864 
-5.107995 -5.290231 22.735577 -38.186075 -28.990531 -38.906391 75.940249 17.805397 40.556053 -21.141646 3.172162 -15.754955 16.886416 -5.894829 2.629293 -20.452494 20121 19865 
7.597819 1.689719 13.390241 -52.782998 -8.659961 -0.889830 70.430116 -30.775105 11.550559 19.603875 10.350248 -20.634795 18.551885 6.812683 -14.755414 -31.479041 20122 19866 
29.585900 -6.734091 -24.019238 -27.631135 34.578270 47.974130 65.935017 -119.688852 -3.133836 -35.957982 -9.719730 -43.330488 13.847310 24.970368 26.872211 26.452147 20123 19867 
-62.532394 -61.605982 -69.030765 -26.986918 51.601423 77.792570 171.217050 -80.454984 -14.636244 0.133608 0.966150 -14.115932 8.287135 29.600303 -18.106923 7.871903 20124 19868 
-22.327421 -57.066433 -84.388000 -46.221604 8.023729 65.123982 83.096154 53.759593 -98.123473 61.528909 25.515515 13.972515 30.812193 40.411962 12.090992 -86.208611 20125 19869 
49.632935 42.450940 -45.585034 -42.212750 -4.828150 64.246514 -143.544484 79.840028 -73.494558 83.064659 20.678856 26.406179 26.635691 -6.634025 51.070708 -127.727509 20126 19870 
-41.986839 55.405689 -19.282323 -23.413723 33.306399 90.925567 -162.728136 67.773365 42.157671 29.115854 -9.025357 15.429096 -25.668918 -81.227113 41.371956 -12.153189 20127 19871 
-25.030009 17.761456 -13.223489 -5.548266 15.272905 22.423049 -56.299155 44.643509 62.963461 -8.438506 14.125660 21.663034 -26.834261 -82.368754 8.872411 10.016954 20128 19872 
18.536916 66.039540 18.047118 -3.364771 -17.294929 -96.291823 13.299271 1.028679 32.408701 34.807332 74.177289 88.863955 1.087812 -72.775325 -101.515132 -57.054631 20129 19873 
26.103146 81.250076 20.741428 -11.321969 -19.994258 -90.063052 13.046297 -19.761667 41.588061 21.320029 69.751411 86.652792 -24.378064 -78.354971 -135.348963 18.769705 20130 19874 
-10.713770 40.023423 17.496885 1.356882 -14.580519 -5.989037 -2.129445 -25.464419 42.817111 -13.253888 10.346726 4.924646 -67.131390 -39.467757 -100.589383 162.353935 20131 19875 
-75.031000 5.201671 26.681935 46.552165 8.225887 38.437407 -40.883721 -9.184344 104.669513 -92.325057 -73.796752 -82.181723 -66.746024 33.625164 7.686395 169.068484 20132 19876 
-24.905513 5.577491 18.745831 44.358109 22.502588 21.764794 -107.104650 19.061350 24.027423 -54.101225 -69.842753 -57.674212 -13.465872 78.358904 55.930263 36.767472 20133 19877 
24.455756 39.163299 11.716324 -5.891169 4.933244 -9.257666 -109.277322 44.157534 -182.180627 84.197728 13.087332 13.458950 18.463470 72.714147 37.467124 -57.208123 20134 19878 
48.334665 9.880411 -19.203954 -38.737255 -29.835696 -7.194063 -18.573846 55.329737 -223.429229 55.413788 13.135919 -9.290584 25.228535 79.046745 90.785619 -30.890794 20135 19879 
72.983378 -21.944170 -50.554288 -63.127873 -29.641756 7.148826 42.058093 43.077791 -116.922794 -95.274720 0.479372 -5.423308 45.324596 91.331248 101.403569 -20.917963 20136 19880 
2.117972 -40.769163 -47.140910 -24.524034 22.292677 52.091096 35.106626 0.825736 59.883574 -191.232423 28.611758 7.422546 26.374282 42.195157 27.797196 -1.052091 20137 19881 
-71.167851 -72.830979 -25.239536 44.463799 39.391386 71.586548 45.499924 -31.703292 104.254067 -120.243845 43.908058 11.804603 -8.263402 -40.224433 -33.989598 42.754549 20138 19882 
-53.212797 -26.121536 30.251235 90.771320 11.990155 -19.047984 -9.146077 -25.484315 112.324710 -29.577781 27.098011 12.277555 -33.023902 -83.379635 -26.499233 20.780275 20139 19883 
-13.091276 7.446398 32.208939 55.163569 -20.380392 -107.206457 39.520989 6.338230 113.941297 34.678239 -24.911564 -22.916519 -51.293829 -68.484430 2.877777 16.109030 20140 19884 
25.144034 -11.473757 -7.764111 -15.741371 -13.777734 -43.297346 68.790102 -1.879818 29.288043 90.159190 -59.453861 -39.337391 -26.011953 -26.186007 9.173848 22.368130 20141 19885 
0.309580 -16.004996 -11.110229 -30.063272 20.025159 34.089824 11.849443 -9.095509 -89.264422 94.461040 -32.248600 -19.611320 19.627890 23.930739 26.663966 -23.559293 20142 19886 
1.109445 -15.682320 -16.576934 -45.217853 13.890635 0.824056 35.354678 26.298293 -96.086770 53.480617 -28.586487 -27.246154 36.873067 57.151841 75.306584 -70.892698 20143 19887 
21.812367 -29.934273 -24.879541 -52.874753 3.743667 -2.062269 61.375170 22.819633 30.766847 29.340279 -36.764000 -36.808300 9.393761 14.902556 39.673490 -50.504634 20144 19888 
21.367997 -22.145786 -6.715064 -24.717411 -11.783434 -5.376156 51.483577 -2.113723 -0.577945 34.056676 17.777031 12.884479 7.676752 -15.965377 -48.129486 -7.722130 20145 19889 
8.631969 15.949385 32.731429 12.843999 -24.156602 -39.875207 22.103635 -28.228607 -28.467941 -1.483233 27.547334 33.975829 30.705879 2.327363 -66.220709 1.615478 20146 19890 
-41.939329 26.185664 37.505529 14.755279 -17.765151 -42.128175 62.355028 -38.968844 29.679775 50.294175 -18.584397 20.706673 15.450403 -1.430180 -73.031688 -23.084763 20147 19891 
-56.762519 -6.602889 21.551400 -5.568334 -23.565554 -18.050912 112.415417 -23.416608 39.441720 65.064021 -51.407702 -20.921180 11.958601 17.431651 -49.060968 -12.506144 20148 19892 
-80.825553 3.301251 24.984331 -3.563593 -9.640222 25.038684 79.723712 -39.018610 12.818521 30.588674 -63.444738 -40.905201 28.644363 38.410973 -24.649244 18.536652 20149 19893 
-107.322176 37.543649 33.971330 27.413961 21.906541 65.436399 -48.416224 -30.533481 -23.074042 6.475413 -35.433506 6.383220 24.682681 33.594905 -8.386421 -4.242249 20150 19894 
0.830493 0.709232 23.274910 24.534324 21.472058 49.272910 -134.602774 14.508847 -24.765471 -22.343848 5.876570 30.165901 -3.241588 -4.620549 40.470773 -21.541787 20151 19895 
155.404824 -9.370073 16.800586 4.002871 7.837036 -20.603708 -156.079175 2.007638 18.104640 64.062161 22.876383 16.123837 -24.787014 -63.140951 3.167270 -36.406326 20152 19896 
125.960126 -52.107597 -7.706530 -9.859870 21.703614 -29.045710 -50.378923 1.434890 53.352611 54.977874 59.601345 27.277728 6.464708 -59.430208 -26.776245 -115.467814 20153 19897 
11.394126 -61.192761 -23.534306 -15.123671 29.276146 -5.634395 77.124159 -12.309298 -77.281663 -73.704763 110.736682 69.944452 75.802687 7.758373 52.644246 -165.900014 20154 19898 
-40.635775 -5.338439 8.410279 12.653075 18.444365 -1.752619 62.234077 -54.014963 -35.911749 -124.027098 73.421986 26.393031 48.476191 13.536672 67.548910 -69.437943 20155 19899 
-44.818320 -35.402267 2.665377 -2.129527 -2.788507 13.753546 131.127592 -62.407893 114.333521 -43.170037 -19.921905 -57.215200 -35.406574 -20.334603 -17.136896 78.851693 20156 19900 
-32.605766 6.811233 -0.002947 -31.007790 -8.222596 20.019542 114.579812 -69.571488 66.292230 -8.804227 -52.943440 -71.085668 -36.224126 13.059233 -49.066266 138.772265 20157 19901 
-19.265894 124.644389 36.095670 -4.784253 3.187172 -19.206303 -97.412657 -23.258124 0.115172 -61.771495 6.808418 -6.065689 -14.054907 29.010392 -21.190831 67.148941 20158 19902 
29.723013 165.531053 34.860413 -10.672225 -45.693651 -87.620946 -111.864417 25.736758 -205.989160 -91.826807 67.142946 69.514594 61.772330 79.364781 65.323588 -45.302272 20159 19903 
123.628241 47.198279 -4.313699 -41.789532 -75.936043 -72.247569 -57.676516 81.136840 -117.901406 -65.665489 20.123829 17.166328 50.095837 63.895100 64.308721 -32.022920 20160 19904 
122.810533 -119.340004 -27.806448 -20.313321 -17.993222 32.722043 -138.172819 168.093238 119.885615 49.432432 -2.216908 -12.342961 -54.326941 -49.881516 -65.010066 14.460345 20161 19905 
-34.067739 -108.159858 -26.102286 24.483627 38.258131 99.456745 -111.494584 117.625964 77.417074 98.435442 11.842972 18.416261 -48.024920 -68.562571 -96.246437 6.722179 20162 19906 
-46.264498 -24.536374 -20.539802 34.633112 32.075189 45.897055 -67.973550 46.708868 53.104894 62.623672 -24.110897 -9.607906 -31.081074 -41.020965 -23.352779 13.445055 20163 19907 
64.374605 -24.881973 -45.787983 -27.973269 -18.723593 -18.302009 11.679896 59.614326 -26.523310 20.071644 -22.970669 -14.122744 -24.784729 3.553148 37.445477 27.331183 20164 19908 
44.656466 0.864592 -39.900026 -37.591715 -16.657515 2.781276 25.141732 20.705189 -31.209191 4.332295 -7.107859 9.221815 -34.786760 13.497343 -9.615237 55.667594 20165 19909 
-7.014046 27.355691 -15.413073 -5.537794 3.180673 13.123041 4.875949 -20.570440 -9.628540 -11.897975 3.421665 10.702553 -29.057625 4.525386 -5.820261 37.754798 20166 19910 
-48.429137 20.748284 -3.515647 14.040546 2.820429 19.450533 30.623705 -35.738714 -4.878668 -31.360423 -2.879012 -18.327552 3.764694 1.451595 43.692728 8.536638 20167 19911 
-72.275954 0.478869 12.576788 39.602895 4.610017 21.722862 15.778249 -22.493727 -5.801513 -38.494603 -25.815401 -34.733755 19.373516 23.497323 46.069127 15.905306 20168 19912 
-51.451484 -42.900851 -9.603941 29.640123 5.656883 21.388178 63.518994 -16.247901 -48.681118 -24.756304 -20.919743 -22.098370 17.854641 47.683386 41.785111 9.132398 20169 19913 
-9.834070 -46.267909 -19.263752 29.367088 25.843222 16.191345 27.851274 -23.887199 -57.731838 -1.983724 -9.186683 5.214544 9.865333 25.998939 50.192451 -22.369021 20170 19914 
46.442776 -20.896737 1.122394 50.550455 15.596959 -32.596198 -25.953020 -34.266630 -64.437068 9.428565 5.611800 28.373682 9.415110 2.661906 65.500566 -56.554561 20171 19915 
58.903064 -4.023634 4.575023 48.904505 -1.628559 -41.898230 -8.673721 -56.158448 -16.075988 -1.425694 4.264315 -2.046213 16.925214 -14.843388 26.120952 -12.919196 20172 19916 
8.535069 -12.220690 -11.893297 12.052090 -7.352223 -12.622454 62.002754 -38.501248 28.733328 4.431558 -11.677956 -23.373397 13.942445 -33.647401 -14.709558 36.300979 20173 19917 
-46.756853 29.443123 -1.643235 -3.074101 -13.174178 4.211211 81.193053 -50.199020 90.576412 50.756478 -0.043518 8.949352 -25.095666 -61.739729 -66.611317 3.207989 20174 19918 
-115.246558 51.248260 21.389824 3.904937 24.013866 25.810034 42.261778 -53.382141 53.445106 52.204561 15.158771 33.207769 -10.847089 -38.310867 -76.440017 -28.418235 20175 19919 
-106.125400 35.494016 8.573809 -12.591724 26.181241 11.739659 17.362976 19.365423 -67.736581 73.715968 17.975726 31.934443 12.930598 -12.215633 -38.145245 -18.459275 20176 19920 
-9.519248 62.635283 -0.951897 -47.896772 -14.013479 -28.413235 -5.940973 44.100322 -77.854229 62.791895 22.091548 28.205680 9.302068 -9.991424 -11.872566 -22.672971 20177 19921 
-55.102981 85.171728 19.789630 -37.417493 -1.751073 -8.472519 -2.851784 0.634492 44.083960 -17.229734 -7.161733 -2.269504 -7.202977 -8.797808 9.267499 -10.689703 20178 19922 
-164.249447 100.342124 29.040878 3.591363 23.284652 24.925509 13.913130 -30.848209 157.021656 -13.763630 -30.525190 -38.898534 -50.453678 -35.857401 -22.434035 34.910811 20179 19923 
-135.491674 79.335397 26.860467 20.345893 25.448643 39.576219 33.150048 -89.224992 81.958589 67.157138 0.590876 -19.059758 -47.150367 -35.961607 -62.298142 14.763271 20180 19924 
19.285120 70.607248 5.580394 -5.487516 -10.454085 15.432954 11.889296 -106.853410 -15.308064 23.932026 23.776634 27.677187 5.339782 7.835477 -28.757128 -44.495913 20181 19925 
173.741268 -41.901206 -10.307314 -45.280944 -48.431081 -21.951613 9.076284 -14.945393 -4.701967 -20.621807 11.369374 51.117051 15.863346 10.241680 -14.822133 -48.445543 20182 19926 
255.015398 -212.448319 36.486610 -30.204962 -18.072115 -50.972556 -11.964848 32.160792 20.236813 60.737515 -9.811729 13.247794 -18.119172 -27.544689 -44.671841 5.925308 20183 19927 
209.590226 -179.440339 38.844331 -21.161878 25.884508 -68.305299 -35.409110 29.997562 -8.233462 57.197011 -7.674848 -13.318604 -31.788519 -35.495784 -10.276337 49.590543 20184 19928 
61.994412 -109.134988 -24.224204 -29.613774 10.813392 -4.455594 8.245838 86.374918 -34.691145 -120.074430 14.685148 17.797336 3.994521 10.206634 69.098881 38.983056 20185 19929 
-8.093132 -5.404580 -30.182051 16.115998 -0.524393 35.694585 -87.308640 79.702213 -8.850879 -216.932079 12.122989 18.859686 31.025861 49.977930 70.161155 43.635337 20186 19930 
4.064431 75.774770 -33.334014 32.085343 9.448793 16.992588 -138.142633 33.110723 -1.117539 -99.261291 -9.404803 -5.283644 10.598398 25.097075 23.652446 55.719358 20187 19931 
8.614558 50.499259 -12.337916 12.943872 2.015151 -10.110713 -79.739166 28.114953 -27.624127 5.506569 -17.743578 -17.614489 -0.848169 2.286978 12.217147 43.819669 20188 19932 
4.697824 2.376256 23.037328 6.613592 -9.081874 -11.014545 -45.426013 28.797432 -41.891331 48.348058 -26.906570 -39.922500 -4.231218 14.420550 23.938738 26.244273 20189 19933 
4.204927 -24.320723 7.745538 -2.992412 -23.438575 -9.259888 3.363501 44.697632 25.151549 15.589855 -5.767957 -26.487721 8.746632 24.482707 -7.805293 -33.909772 20190 19934 
-8.826293 35.161536 18.078661 8.139868 -22.274827 -23.977662 -24.057874 17.756592 82.132767 13.871771 29.728911 10.176096 12.184070 1.960352 -58.377356 -91.676610 20191 19935 
-63.135392 49.645300 20.084438 37.461761 -23.224270 -17.672604 33.973579 -37.132813 -6.829869 35.434936 8.586384 -5.095702 25.155623 -0.260182 1.236108 -58.227298 20192 19936 
-118.871824 14.869637 13.369473 62.219868 -24.459445 -11.768131 130.328934 -65.688511 -40.383120 -24.742540 -38.065796 -35.561065 40.809081 20.689265 22.802051 54.452123 20193 19937 
-101.428575 -46.050918 -14.762842 29.632020 -8.594720 18.811538 157.979532 -35.586035 62.801556 -34.032606 -70.674011 -71.275968 2.501616 24.021101 -13.528602 100.186913 20194 19938 
-18.076109 -50.686517 -29.461869 3.495991 3.340843 18.679193 67.089942 5.618525 74.777140 0.352371 -31.416873 -43.258264 -21.689685 8.720354 -0.740323 13.255280 20195 19939 
53.210595 17.876655 13.155196 29.037757 20.697027 -4.346792 -137.185185 7.554747 98.869935 -14.236970 16.568954 -3.394563 -38.723296 -41.572346 20.814384 -38.326099 20196 19940 
58.461326 13.573144 -0.483349 16.876342 16.976271 -12.671550 -129.810947 37.078762 120.043466 -8.659545 13.713791 -10.713932 -38.536210 -56.511459 27.471556 -46.807667 20197 19941 
67.381220 -29.310759 -43.244919 -43.044398 -19.309287 -3.761981 20.495435 50.794689 -157.474336 38.645153 52.154293 46.900934 30.474851 22.197891 57.606454 -90.505240 20198 19942 
70.722708 -42.813800 -38.228768 -51.975582 0.349233 43.805175 13.444905 4.696128 -273.993750 62.776611 56.391777 72.467683 50.153699 65.697680 23.131068 -56.624768 20199 19943 
-9.553824 -29.909229 -49.476748 -35.317497 25.772933 33.086388 66.897796 -1.499819 -71.911297 91.133291 11.386134 36.489069 -12.987766 7.957304 -104.841235 42.774501 20200 19944 
-49.934269 -11.926355 -63.043189 -43.559447 14.756011 19.223747 139.692739 -5.209236 -39.674780 95.047368 4.710578 6.493823 -39.858494 -20.677659 -91.536535 85.495700 20201 19945 
-49.466840 40.926270 -20.785904 -24.162558 0.118984 50.902818 29.243154 -26.775924 -57.182349 75.190029 55.895777 31.388947 -19.334343 -22.513297 -74.963317 11.518554 20202 19946 
-57.418532 121.120716 25.644065 3.051476 -31.837428 34.785785 -64.473885 -30.872196 -6.972667 -28.314817 71.924837 63.035538 18.021548 -14.107740 -62.627948 -40.958750 20203 19947 
-12.407798 114.692520 47.450814 21.890740 -4.621356 13.158263 -120.200614 -59.962569 104.698380 -183.931276 -51.510276 -25.340793 9.628355 17.831400 46.359693 82.264516 20204 19948 
-26.511337 60.761819 44.859121 6.024979 36.506517 -4.773657 -70.595299 -46.272143 173.043955 -152.527756 -124.166489 -82.125567 -28.796205 25.907988 73.293490 115.370585 20205 19949 
-104.083030 32.747615 29.753887 -2.892388 15.082077 -36.214068 50.379116 15.226790 78.149512 -25.294964 -71.904355 -45.731433 -5.738082 31.497359 18.891306 20.130657 20206 19950 
-93.029328 44.381712 40.273582 35.338662 -4.902291 -66.171670 19.186643 24.922690 -80.968884 28.052082 11.654935 12.872476 38.834736 44.527156 -17.254953 -37.717548 20207 19951 
-69.180426 7.238734 30.327208 48.462830 14.238926 -21.564170 -1.567671 -7.955430 -132.554783 16.016366 26.348504 32.743234 41.677547 40.663987 24.665290 -49.560144 20208 19952 
15.267397 -74.502135 9.595840 27.198887 3.181778 21.261551 28.165409 -30.168727 -60.112765 -37.859156 -4.135328 -7.802976 19.395844 21.476089 65.245921 3.792370 20209 19953 
139.173222 -73.876999 15.328286 -4.192161 -33.099996 -37.592486 -3.054146 -2.685720 -83.083100 -65.400115 -9.844217 -36.211618 6.476560 17.512670 117.420013 53.129806 20210 19954 
102.793632 -83.039537 -3.598730 -41.427816 -19.765211 -43.047392 45.571434 42.513621 -64.237967 -33.853720 -22.846855 -36.392339 3.713746 6.330011 101.697989 45.589136 20211 19955 
36.405677 -65.217799 -6.793662 -34.754927 23.866355 -2.727065 67.317267 -18.095846 2.727111 5.623449 5.079299 -1.981934 8.401968 -10.659536 10.135389 -19.325745 20212 19956 
-4.323815 -30.980395 -12.650012 -8.947827 33.586261 -9.202488 53.663498 -21.145222 56.881663 17.059541 -1.290272 -14.313491 -12.827778 -28.945901 -6.461305 -10.102457 20213 19957 
-5.742945 -7.089125 -4.850133 2.490019 17.919862 -16.657478 -55.244882 69.174683 111.925191 45.087951 -9.300921 -23.855550 -31.179131 -55.408299 -20.628573 -16.640668 20214 19958 
13.702018 27.235463 29.294944 32.671880 19.250394 6.684477 -213.839693 85.000517 84.712967 27.217629 30.430090 27.188157 -9.712613 -54.608829 -27.201991 -78.025410 20215 19959 
-5.584854 31.633790 2.260585 -2.536256 -0.711953 32.228154 -148.023459 90.733993 31.327844 29.521812 51.448853 57.926811 8.502562 -62.455493 -6.151211 -110.121179 20216 19960 
22.296605 49.557928 1.373649 -37.889527 -9.749382 25.651408 -111.063124 59.822442 -19.383691 65.805268 57.022499 65.264011 31.650437 -62.800797 -16.200324 -121.357403 20217 19961 
65.096874 5.032377 8.434468 -43.189755 -0.051966 -1.675039 -42.909717 9.262757 12.847808 39.215550 20.979013 20.255819 28.528876 -32.552186 -27.286578 -61.988303 20218 19962 
57.929834 -76.355757 -20.373155 -54.929083 9.648753 23.162514 62.195082 -1.278188 103.931875 48.525572 -10.653928 -24.435076 -14.503793 -13.215993 -57.424119 -32.224538 20219 19963 
31.165794 -75.794797 -28.229615 -16.755327 -0.390505 45.660515 62.939488 -18.595554 99.776391 46.342707 -5.883326 -6.768975 -21.060612 30.897335 -112.557822 -30.745698 20220 19964 
-11.512102 11.864960 -9.554184 16.061314 -16.197290 11.524326 58.465710 -60.652733 -26.431693 -33.018126 -20.655461 4.940758 11.559008 111.069111 -49.935267 2.471669 20221 19965 
-129.707523 114.929489 27.995462 51.415494 -7.817389 -35.164911 61.057085 -82.707707 -149.995784 -119.893532 -47.945492 -18.012699 42.574115 165.310173 84.148952 43.814267 20222 19966 
-233.366520 115.578936 9.120166 47.697345 -13.781625 -27.868157 147.140223 -44.520369 -100.293248 -116.576828 -90.053394 -56.738323 13.215841 121.687323 121.576244 107.182385 20223 19967 
-122.213928 18.610330 -40.585806 8.989589 -7.525153 23.630750 142.770406 -23.676189 -19.750339 5.210173 -71.938622 -50.005386 -41.911523 9.230264 32.525890 136.639544 20224 19968 
60.571066 -77.721121 -41.146811 -2.117118 -1.170790 20.653002 97.839469 -56.907698 -30.435891 88.326599 5.426862 -14.415180 -32.689909 -50.867757 -24.870763 59.526039 20225 19969 
120.587492 -99.707834 -10.985690 10.538165 -37.263902 -17.423962 77.111880 -42.856148 -2.224845 47.808546 21.985085 -4.061973 6.157591 -41.177201 -3.327777 -25.159426 20226 19970 
94.520188 -47.104136 6.710201 31.528311 -50.728882 -20.343412 -25.998013 11.415742 28.031897 -22.974016 17.900046 0.399336 16.635049 -23.443325 9.071978 -25.620965 20227 19971 
43.724622 8.687478 16.449353 26.182903 -33.931695 -15.762271 -61.619759 16.269368 59.197561 -31.865007 36.660136 14.894124 -7.705689 -36.427338 -27.304100 -7.449686 20228 19972 
33.384370 37.896688 23.391647 2.354772 -24.157739 -32.457917 -42.356828 1.945007 58.490631 3.547983 58.435170 32.103836 -21.334647 -55.468259 -61.006864 -14.767852 20229 19973 
30.021854 21.417507 33.259741 7.010736 32.815317 -2.269693 -120.107487 -2.147974 54.840238 44.827050 45.206079 12.415604 -27.156511 -70.073550 -45.708909 -14.350001 20230 19974 
4.205473 -39.766530 -1.039673 -4.690793 47.339885 24.260520 -12.179888 -18.128993 37.674318 73.296066 32.853515 24.940687 -26.499618 -72.187495 -48.800034 -21.277439 20231 19975 
-29.961895 -54.259923 -66.100974 -66.619584 5.194180 24.366893 200.393716 -13.012413 -22.514312 60.755417 32.746980 63.513729 -7.226123 -41.574708 -16.538243 -69.162740 20232 19976 
-66.756910 9.971675 -48.349252 -58.065762 -9.196950 35.728539 132.694504 3.974154 -55.344303 27.019736 26.905206 48.125444 22.349852 -5.422318 27.269766 -90.903382 20233 19977 
-50.771129 61.522708 13.952553 6.996921 23.343429 58.397986 -141.221447 27.778979 -37.700427 -11.103506 -8.001969 0.617774 21.603341 -5.078082 24.547236 15.115632 20234 19978 
25.544710 45.484569 39.565456 21.349157 46.259830 21.718051 -247.082792 47.161018 7.062565 -20.863700 -57.648840 -44.665921 -3.953685 0.515763 10.429176 109.124643 20235 19979 
59.274536 4.602690 23.218285 4.107603 -6.809312 -47.482027 -38.210062 1.298287 7.268373 -22.520205 -54.911644 -65.008563 15.457122 54.134236 6.372021 59.208660 20236 19980 
48.396901 -41.250183 14.117172 28.107711 -13.973626 -27.094263 1.288771 -9.592483 -20.741375 -10.504669 -40.267089 -36.797485 20.350820 69.785386 10.640506 7.533906 20237 19981 
45.730906 -85.968089 -15.890445 26.129454 13.540831 0.763116 -4.572884 20.267111 -10.733537 -15.511561 -69.630171 -32.186746 -10.794327 40.233737 42.581783 56.040821 20238 19982 
83.366011 -59.414418 -33.164705 8.485163 20.577248 10.257105 -52.037571 21.931167 55.001633 -37.699000 -66.798285 -43.837862 -43.991889 -9.951186 70.332830 76.943758 20239 19983 
37.391694 21.688465 -12.432275 8.411454 12.182081 6.577162 -76.439284 2.620703 -31.956201 -25.651690 25.073324 28.616246 -18.661373 -17.642052 71.659794 -31.438047 20240 19984 
-140.238276 56.864404 19.031746 29.723608 43.221541 22.361625 26.702432 -57.667081 -58.722598 -41.377237 51.237171 40.915220 22.519631 10.392154 19.577938 -44.542277 20241 19985 
-127.458372 15.103080 23.761081 43.144669 75.245383 18.318610 -31.425846 -16.688604 54.052679 -55.819222 -5.338746 -20.575467 -3.937447 2.294993 -40.543534 69.866745 20242 19986 
20.181905 1.476236 -24.802050 -25.610805 -10.433084 -33.552916 20.194290 52.546424 29.900251 -30.939579 -12.047894 -25.053543 -14.392519 4.544235 -13.083976 61.073025 20243 19987 
-10.663139 78.679124 -0.631605 -25.114385 -57.322654 -34.167211 20.578161 28.641710 -15.543459 29.911492 32.043297 21.413693 15.867415 10.066728 -43.429242 -50.329925 20244 19988 
-59.305223 138.983608 21.314194 -6.402650 -46.247648 -34.196668 -19.593911 5.448299 -13.733286 74.304780 43.913277 31.449120 23.395687 -4.885802 -76.656093 -77.787683 20245 19989 
-6.137400 99.501198 24.694235 -16.710572 -31.105373 -42.738318 10.925046 -38.428816 -1.523728 68.027970 35.134966 13.764800 -5.009913 -27.462585 -32.149272 -50.782239 20246 19990 
11.098969 -33.934793 35.916216 -14.784003 -11.248251 -23.173221 64.970290 -28.845206 4.303809 40.100601 34.424571 18.284613 -15.371644 -22.067425 -18.504109 -41.170416 20247 19991 
-7.955844 -41.203642 25.119890 -35.138920 -27.450085 -5.538408 88.619610 3.547399 14.783094 13.604399 7.849782 6.781259 9.486397 -7.587204 -21.990335 -22.927391 20248 19992 
-13.610647 31.301833 1.798274 -45.704456 -34.048547 -20.542570 47.804293 33.001820 23.564990 -11.991776 -6.033084 21.463585 26.808333 -4.883558 -19.833671 -29.094819 20249 19993 
47.884852 -65.595516 -72.603964 -55.841011 -15.084338 -9.886048 95.872641 75.253384 16.150695 -2.086212 2.427855 28.026487 -2.016252 -9.087283 1.771443 -35.186734 20250 19994 
96.206556 -154.366026 -96.640453 -30.461958 12.031228 42.706026 86.494912 44.029716 -39.023215 0.212767 0.489187 10.454163 0.255152 8.966832 24.269392 -5.624278 20251 19995 
64.590487 -99.371529 -51.364800 -2.214670 22.622319 68.096976 -7.014677 4.655895 -78.555775 -42.793774 12.429975 25.081761 12.863538 24.541199 15.223354 31.209722 20252 19996 
8.986003 12.093202 -6.318458 2.471415 12.639832 35.703033 -53.690344 -11.884683 -29.623608 -40.155687 30.200053 29.672788 -16.772707 -3.500528 4.832988 25.346701 20253 19997 
-42.335196 48.899007 7.586703 0.683921 -5.069568 4.575243 3.015772 -17.355882 27.878419 5.777336 31.308220 21.306175 -20.859049 -23.699995 -0.807919 -40.903186 20254 19998 
4.120652 10.744894 29.981247 18.899615 21.843876 13.124214 -74.960581 -23.753915 37.174086 55.739635 32.565007 23.066803 -10.162623 -24.958665 -48.109718 -65.314525 20255 19999 
36.306220 -5.754941 56.907522 37.940847 39.706093 -16.979986 -87.844947 -60.280808 -18.451688 46.683468 34.152824 32.550348 -6.772288 -8.013185 -61.806498 -18.342980 20256 20000 
5.398801 50.256912 46.796377 12.835189 9.507082 -33.139003 0.817304 -92.472662 -48.106693 35.172273 31.766011 29.654684 -21.295896 -22.056246 -22.571386 17.437253 20257 20001 
-0.341062 82.904915 26.836223 -16.576123 -9.634012 -19.680982 -11.846119 -51.662840 13.113586 47.335381 -4.463022 -5.519248 -23.757352 -48.975141 -41.784643 64.050438 20258 20002 
13.999119 39.736732 5.302294 -34.501240 -27.550903 -24.675995 20.502942 7.187050 5.595256 28.231258 -31.085025 -24.781957 6.284769 -22.648617 -4.136183 42.540499 20259 20003 
30.851349 -24.312816 -27.237493 -44.698518 -7.282287 14.144267 -25.340756 83.876254 -66.787073 -21.048768 -9.271761 -20.618093 36.424483 12.713124 121.508135 -52.920047 20260 20004 
51.459776 -76.603976 -61.455199 -49.968028 4.505105 38.574736 -18.272478 111.760063 -14.481125 -88.193296 -8.394586 -33.556756 36.869091 38.162623 94.238187 -24.644138 20261 20005 
79.438941 -37.673851 -32.904303 -15.150322 -3.998537 -1.084404 -12.101201 23.473679 108.817271 -111.652517 -58.814713 -70.254588 -9.627029 43.913738 -14.284216 111.902054 20262 20006 
-24.638091 -48.924201 -25.917890 20.855433 15.428228 2.518112 6.957773 53.720636 93.091292 -86.491437 -72.327629 -75.764628 -48.604066 26.238520 2.216504 161.641445 20263 20007 
-84.059046 -50.952029 -33.115137 58.875869 11.801939 9.416014 29.451852 58.580539 -2.004279 -26.947471 -9.930050 -16.371012 -14.312411 20.174495 -9.944795 59.335524 20264 20008 
-42.952946 -12.212333 6.983582 112.288048 -3.271743 -14.336272 -20.012233 -26.486104 -24.373645 10.610539 4.094524 -2.968098 24.387023 24.554434 -26.082090 -10.222688 20265 20009 
-39.673711 -30.410833 29.468430 92.524191 -15.588339 -19.362616 13.623525 -30.580648 -15.659968 8.564891 -21.414984 -30.627091 16.803988 21.822653 34.769448 -14.258936 20266 20010 
-33.934221 -12.704823 57.809552 47.743410 -20.615384 -33.203574 28.729756 -33.824715 35.523010 24.890507 -30.182035 -38.525465 -10.754346 -4.745748 38.988311 -15.194234 20267 20011 
-43.380647 6.696321 58.247901 27.915614 -13.515286 -22.692680 10.830212 -24.101435 52.742580 43.086219 -28.880419 -36.799750 -13.158238 -7.332555 9.132536 -18.790374 20268 20012 
-13.401790 41.470186 39.096526 10.819001 -2.716041 -9.861213 -41.597592 -23.809078 -33.409187 44.445553 9.201759 16.961380 11.092935 13.425117 2.658451 -64.376008 20269 20013 
-33.320360 45.249750 12.221649 -13.823157 -4.307900 9.371208 5.969335 -21.360526 -92.867051 -1.776793 23.822870 49.409475 27.602768 29.694593 37.579959 -73.465821 20270 20014 
-35.466676 42.569922 -10.200383 -21.845716 -13.794803 12.080949 21.046208 5.610499 2.794871 -47.474060 -2.781340 16.345359 15.361886 20.558295 -1.812857 -2.992155 20271 20015 
6.363931 83.167618 3.089988 -34.623757 10.023261 0.332621 -82.863942 14.510281 108.093860 -8.168047 -27.126197 -20.740157 -41.444747 -29.257401 -48.522698 67.165386 20272 20016 
-46.406896 80.593069 18.419558 -24.049090 34.564352 30.094458 -81.492488 -11.722963 18.623146 41.171119 -14.461709 -7.201057 -27.380115 -15.120856 -0.494607 4.864079 20273 20017 
-57.270956 21.504524 10.125856 13.622092 7.251214 15.267657 38.036217 -48.536603 -81.437143 37.921697 15.095044 22.948366 9.355829 10.543514 17.100124 -31.527430 20274 20018 
21.809317 -52.112223 -17.068335 1.871572 -30.847519 0.422163 120.566514 -44.641489 -25.153374 -20.057696 -0.663663 1.274705 -7.762597 -11.377840 7.844048 55.896415 20275 20019 
35.503279 -67.036832 -27.612622 -0.118440 -23.869016 13.845209 93.306927 -24.018505 -17.414582 -17.351677 26.249175 25.048661 19.576221 -27.534233 -12.185203 3.611637 20276 20020 
-1.470305 -4.394746 -4.640608 17.261167 -2.757266 1.935957 14.435130 -20.369330 -90.570229 44.510349 84.319169 76.309813 57.343783 -25.544909 -16.330282 -130.037693 20277 20021 
11.244978 50.863213 27.097821 28.106401 6.193360 -15.184629 -107.139385 -1.181758 39.309921 -26.442828 13.212417 9.331677 21.345577 -20.947763 32.476870 -68.285872 20278 20022 
-20.815023 11.152821 10.423992 26.556998 17.570704 -5.402650 -38.938886 -0.547955 197.405932 -101.985464 -69.550316 -77.319151 -51.787033 -39.832312 48.738662 94.329682 20279 20023 
-38.273838 -35.659757 4.127101 22.953095 27.108064 14.583282 35.816047 -30.653994 78.763113 -39.001087 -15.113836 -36.970084 -30.052598 6.661059 -40.035498 75.748932 20280 20024 
25.292733 -49.256541 20.738878 11.389421 7.249696 -22.161815 -2.124273 8.871902 -99.318224 4.051727 33.303205 43.220366 39.874834 71.025164 -80.008875 -12.148198 20281 20025 
70.283854 -55.260632 9.799962 -2.529738 -15.049199 -39.823148 16.100309 16.478592 -72.396146 35.325133 -20.080953 15.966214 9.473553 27.844204 7.215512 -3.347517 20282 20026 
-18.504083 -37.451238 9.541392 6.002939 20.350642 11.910121 26.517094 -18.366866 -130.530686 88.570266 -12.872981 -0.611198 12.178305 27.732221 45.648623 -30.114550 20283 20027 
-123.480304 -37.704466 12.183710 -1.521457 44.035789 46.793199 41.427765 18.265764 -177.081608 40.142357 37.400117 35.159735 52.823008 48.951057 32.521086 -69.915753 20284 20028 
-30.435137 -17.888425 3.086045 -16.316496 10.851892 27.452070 13.373914 9.876136 8.291419 -39.988979 4.133375 -2.982022 19.985391 -2.464384 60.732050 -47.706850 20285 20029 
77.641140 15.141298 -16.435882 -31.026497 -12.967309 7.491799 -5.502070 -34.342478 96.783704 -32.225117 1.838687 -10.597961 -1.053697 -32.404759 24.099268 -46.440125 20286 20030 
109.804798 23.977101 -44.752537 -69.604493 6.861807 28.506475 20.478658 -75.271809 80.412317 -33.075869 12.863542 12.107581 9.731419 -14.884218 0.295848 -67.450621 20287 20031 
101.245412 28.478612 -54.715075 -87.015865 24.065017 17.790379 60.629643 -90.478123 -9.369812 -56.891471 29.633882 37.503872 38.687171 38.467805 -20.975945 -57.055503 20288 20032 
25.518932 -9.322465 -51.954631 -66.638667 2.078182 9.978801 95.441319 -5.101471 27.489809 -19.083580 43.136427 26.304468 1.316593 5.356696 -114.544391 30.023978 20289 20033 
-23.625849 6.361634 -16.140180 -36.252721 -13.024381 3.635965 24.422984 54.622548 82.489494 31.267539 -1.349118 -19.594204 -53.214910 -49.134364 -91.323378 100.858943 20290 20034 
4.567313 69.495702 29.064529 -7.550316 -14.157952 -44.478585 -136.455898 99.515207 35.160529 23.126818 -36.562500 -31.700627 -29.462003 -20.815045 -17.891320 78.144148 20291 20035 
37.091167 18.852082 -9.992772 -28.529250 -30.731742 -37.735023 -94.808115 145.853652 24.365933 30.189022 -43.359425 -39.505854 -0.186062 6.345877 -26.885212 49.035721 20292 20036 
7.011994 19.298413 -16.606366 4.925464 -11.767733 13.210270 -96.089250 80.017207 23.508881 38.460685 -20.240063 -11.577900 -12.748605 -7.807005 -53.912904 44.316910 20293 20037 
-52.920216 81.226850 -25.990116 15.375866 8.815442 18.802544 -64.422093 19.111723 30.854791 7.419956 -9.066305 9.365419 -31.864457 -24.915967 -14.931358 33.137920 20294 20038 
-80.809398 71.822212 -72.074432 -47.380140 -26.813523 1.373184 123.701442 30.180654 -1.171204 45.916924 -5.737922 18.547360 -37.165678 -28.672271 18.380805 -10.098014 20295 20039 
13.925924 33.903578 5.184571 10.744788 12.577989 19.641706 -139.037318 43.058762 80.558970 7.432258 -26.941074 -14.613610 -51.903342 -28.194288 41.073086 -7.411999 20296 20040 
108.880271 -50.166498 49.659282 43.089935 26.157280 -16.570077 -189.509820 28.459625 39.226164 -71.648463 -38.141732 -24.507635 -16.906589 19.310739 61.271646 31.395870 20297 20041 
26.127141 -61.686891 21.988457 9.327936 -35.083751 -43.814874 76.683071 6.458912 -161.781642 -21.544635 19.246664 57.205255 14.997240 24.518610 34.067118 33.291391 20298 20042 
-72.466074 -11.257378 -1.420002 -19.883108 -41.288635 -1.996590 141.182299 7.129489 -122.901377 -13.829140 3.964427 36.563793 -3.986000 -2.149135 69.775043 32.562391 20299 20043 
-13.064390 78.361859 13.380902 -36.210246 -52.779160 -20.576700 56.659131 -25.771395 -21.707134 -25.687802 -26.532529 -13.620028 2.782747 5.697951 28.134478 50.932317 20300 20044 
99.231697 82.916519 72.711310 16.134963 -31.220579 -44.811201 -155.402264 -39.560445 -20.345531 57.070105 24.400378 23.533774 9.035152 -10.938279 -66.757204 -15.998394 20301 20045 
62.355780 -97.258168 70.898278 48.562871 24.944539 -3.575791 -115.852757 9.925247 24.040190 67.853713 32.660879 16.116520 10.973411 -21.395834 -7.720195 -122.528683 20302 20046 
23.825214 -124.495962 24.103035 35.178906 33.514146 14.712150 -21.612079 14.774590 20.473029 2.875063 25.313125 -6.230948 50.283601 11.380932 7.264874 -111.359676 20303 20047 
25.273433 -58.036628 -3.853437 37.441249 2.843255 0.810712 9.431468 -13.910051 10.648184 -53.480366 6.668614 -23.070967 39.637172 17.862205 5.093517 -3.358359 20304 20048 
-45.795003 -37.214061 -15.515804 51.569998 7.725864 20.794632 8.243135 10.191240 24.596932 -24.181550 -17.775110 -32.121322 -18.076902 -16.027761 21.995273 61.590441 20305 20049 
-54.110579 -27.714757 -68.192016 16.570640 38.949811 39.697653 21.437626 33.361622 -12.288026 43.722063 -18.941127 -21.283758 -25.487227 -24.387968 20.150446 38.515596 20306 20050 
-55.956319 -20.059597 -78.020188 -4.710446 25.906964 26.854572 101.275434 4.709579 -42.461297 12.329026 -17.844511 -16.201000 12.451221 4.780634 51.196970 -4.251044 20307 20051 
-50.507788 -3.894536 -42.151076 4.595439 6.264613 13.701925 100.239107 -28.247685 -8.043655 3.526989 4.850830 4.758047 17.892949 16.791214 30.826768 -70.603143 20308 20052 
-39.278455 -59.252393 -42.798667 -22.401013 -2.644722 35.932438 175.756486 -45.313672 46.625015 -10.481117 34.069462 26.097928 -2.924353 -3.713180 10.309883 -99.983637 20309 20053 
-44.944950 -43.407074 -22.425420 -31.898770 -16.595420 41.796354 201.933326 -84.458046 26.365623 -8.238657 64.502011 38.501694 8.776053 -3.898013 -46.633185 -79.375526 20310 20054 
-2.733220 16.219725 23.425524 -10.396528 -16.770359 -4.976484 118.645238 -123.413897 -26.275571 6.113057 62.548315 28.883851 -4.049611 7.420507 -54.724563 -19.915984 20311 20055 
10.322254 68.945438 81.276286 43.227293 -20.678245 -63.766105 -20.633062 -98.693859 -49.578235 -13.838074 20.939142 -4.459473 -10.093572 18.082617 13.926888 25.020706 20312 20056 
-18.684501 79.925267 111.719672 93.235766 8.087235 -61.050524 -161.841943 -51.390971 25.047835 11.834462 -37.331482 -61.590321 6.474764 1.711312 9.579420 44.274011 20313 20057 
-1.250170 46.022323 89.930192 81.837809 48.220534 -53.113018 -206.956170 -4.691500 71.930799 20.393157 -54.148287 -69.292971 -5.799972 -32.740818 -10.424837 80.082927 20314 20058 
49.308862 61.273129 -2.279028 15.489337 22.375875 -35.516571 -152.050765 41.399160 4.295093 20.917198 -26.212070 -38.198912 3.650279 -10.318229 33.582567 12.284074 20315 20059 
-31.552823 55.166271 -78.873370 -40.926263 13.238840 23.604261 8.965461 50.377622 -59.603352 38.509257 -5.893321 -24.999843 6.136471 38.351699 42.631568 -35.132479 20316 20060 
-113.753033 96.312034 -39.644285 -24.385627 14.117005 -0.804403 16.493070 51.665239 -40.508943 19.998481 -40.679818 -38.493865 -37.328363 56.242633 -27.630561 108.400437 20317 20061 
-39.871271 96.107128 7.990176 7.385362 -21.033914 -26.671998 -83.240780 59.335296 -2.951476 -3.480344 -70.160071 -55.759130 -37.305545 64.065080 -65.646337 171.237822 20318 20062 
107.237388 -72.165859 21.948819 0.019972 -29.146671 -17.443900 -57.699336 47.249587 -49.215714 -14.726634 -9.137176 21.373016 7.649682 52.673176 -71.073694 62.457344 20319 20063 
146.476180 -161.160664 -3.651292 -37.082282 6.725974 21.264695 28.864237 -1.436847 -19.256677 -71.696785 -2.691515 42.090100 21.230344 9.486874 5.431606 15.406053 20320 20064 
31.576258 -58.937786 -24.237819 -32.311525 27.953688 51.596490 47.585022 -43.224329 91.985369 -80.182863 -39.077626 -28.303974 -4.618039 -32.792804 72.004670 20.985268 20321 20065 
-43.195977 -10.130930 -13.664709 10.466828 9.827557 15.170759 42.983323 -11.456851 75.656042 -37.829976 -1.963282 -10.234112 9.370018 -42.584387 19.807943 -12.222246 20322 20066 
4.826919 -6.642396 -27.538870 -4.244106 -16.027217 -13.914085 48.662690 14.877065 41.440483 -21.891878 15.953009 27.326822 42.103122 -33.772860 -34.169972 -36.988725 20323 20067 
64.861913 -22.112747 -40.093877 -40.103192 -24.132149 0.546495 50.138779 10.894778 36.442446 5.665989 0.200449 25.995760 27.518292 -27.209554 -22.805980 -45.807403 20324 20068 
11.361604 -20.911434 -12.711183 -27.236459 -21.905078 -8.207597 89.372408 -9.762259 4.794840 18.350633 2.965045 36.374890 17.650513 -10.657157 -14.680329 -54.798435 20325 20069 
-31.293949 19.967285 27.618513 -9.298599 -15.415630 -34.740156 64.570084 -21.407547 -1.210489 42.263529 24.384469 48.307764 3.270145 -14.534470 -51.423781 -51.057167 20326 20070 
-82.597874 34.924076 30.804781 -19.924342 3.561838 -3.948210 42.482399 -5.302667 -53.275157 100.686520 68.625846 74.092955 4.284717 -23.997002 -65.175902 -105.241977 20327 20071 
-77.214672 55.598491 24.119237 -10.824440 27.065219 35.505519 -78.709944 24.460590 -108.667342 120.830840 63.978782 68.585970 12.447952 -21.565792 -2.177760 -133.432649 20328 20072 
-19.169672 -19.980008 4.265088 9.405479 35.964000 58.386430 -129.695695 60.824378 -36.770712 21.705522 -1.272223 -4.566596 -12.477350 -25.597017 59.848050 -0.869673 20329 20073 
-33.472573 -55.512380 1.444921 12.301660 14.757667 36.504563 6.506262 17.469881 82.044353 -95.319884 -38.111893 -47.273072 -49.954260 -44.082747 47.593650 145.103853 20330 20074 
19.101938 52.870289 44.276972 10.464509 -14.722377 -5.260847 -51.882264 -54.848221 42.704529 -55.380453 -13.272397 -17.829471 -41.468556 -33.483959 32.060678 86.669628 20331 20075 
103.249931 98.303757 35.501553 -20.398851 -31.417523 -32.928312 -79.210490 -73.100064 -11.899405 -6.229118 23.680947 2.087898 -16.918496 -0.511484 17.294077 -7.504419 20332 20076 
121.744754 -20.039204 -27.560891 -55.752821 2.431484 6.113238 -3.774736 -23.161823 31.325423 -57.201892 3.185920 -39.029380 -27.263337 16.052175 53.970116 18.960976 20333 20077 
-7.964007 -97.236973 -45.372051 -23.822585 22.419018 58.892003 74.499316 18.585279 35.663185 -58.565605 -8.218796 -41.018680 -16.145836 47.859848 34.254104 6.171779 20334 20078 
-180.071065 -49.840501 -19.490615 24.212385 2.540856 35.002656 183.291479 4.354804 -17.548864 -0.869981 29.399593 1.014313 4.504358 71.523060 -74.214403 -13.808077 20335 20079 
-203.102681 -26.481477 -5.094384 23.511342 -10.105364 11.366613 190.215300 19.690650 -73.860734 8.314324 26.503880 15.169995 12.355831 67.178476 -53.521070 -2.140702 20336 20080 
-48.986540 -54.447484 -16.636186 4.197586 -35.157161 -16.606398 128.665453 38.970730 18.775404 -23.672828 -0.776448 1.276509 -17.510674 31.187092 -14.451828 5.172772 20337 20081 
104.222136 -105.404774 -43.176902 -4.909971 -10.973335 -11.535991 33.197868 38.580968 122.156882 -19.619747 4.192869 -10.322548 -31.819684 -1.088960 -36.092850 -27.405962 20338 20082 
121.170180 -87.561661 -19.497249 26.808836 14.217423 20.984863 -94.437571 18.315180 2.296349 15.172311 41.825432 38.952762 19.578521 9.066916 -27.258394 -99.633896 20339 20083 
50.114864 20.844026 38.793694 66.364507 11.269151 20.108905 -171.708355 -35.786791 -233.930540 64.666781 97.816783 107.669063 71.925148 18.766123 23.430157 -150.343516 20340 20084 
-26.513699 46.820404 31.801668 36.546872 7.833560 2.283856 -64.140228 -34.632433 -188.869431 112.675594 52.893461 68.599435 43.361405 -36.492953 59.007062 -111.174573 20341 20085 
-3.597370 49.276116 1.569473 -8.349703 -15.717372 -30.430432 -7.844212 15.093500 56.092824 57.963641 -63.904941 -37.515343 -13.345959 -73.978650 38.830345 35.858083 20342 20086 
56.464465 78.126933 15.330714 -4.259946 -24.743827 -57.727301 -84.925622 21.734585 138.902021 -33.577170 -83.215196 -58.094180 -27.979313 -57.911937 26.838295 95.037479 20343 20087 
57.360972 51.825131 21.812944 -4.936341 -12.299649 -47.206392 -63.773870 -2.782794 154.154952 -59.638050 -29.994388 -23.965632 -11.478526 -18.839049 -16.042359 5.803052 20344 20088 
35.787541 17.211489 9.684459 -35.753632 11.785941 -13.171717 -26.856980 1.312898 164.378895 -76.717741 -18.895208 -15.443733 8.067509 22.980046 -94.843332 10.473565 20345 20089 
15.633592 -2.087404 5.047035 -53.028109 27.126404 14.460777 -12.330670 5.178376 39.921908 -15.700331 -25.137692 -16.712308 -0.323136 9.586228 -60.967004 69.332335 20346 20090 
5.413979 -8.664633 -7.971988 -26.697092 25.054781 28.197924 -13.299512 -2.033459 -156.457029 19.080809 0.973203 3.453797 24.205718 24.083487 26.816201 57.843815 20347 20091 
7.596888 -41.387690 -23.824847 1.255108 9.183385 15.325681 10.534459 21.317017 -56.552308 -22.135466 -40.512350 -24.615546 -4.511187 -0.036330 34.591365 113.771821 20348 20092 
15.586632 -14.993065 -23.197701 -1.400778 -0.686797 -16.614475 19.265163 22.041021 36.967956 1.338626 -65.061568 -57.628416 -27.236209 -23.941227 40.933760 94.627077 20349 20093 
11.113701 56.695692 -16.189378 -18.904288 -18.453378 -42.409715 19.649546 8.497820 -33.774940 35.823910 -26.316001 -23.350844 15.033088 13.250474 29.853995 -10.519683 20350 20094 
-26.914738 54.875530 -20.975454 -28.400682 -21.190440 -8.197994 62.931597 -12.127819 -51.423513 46.936353 -0.285057 3.907732 12.474799 5.853287 31.816210 -49.279812 20351 20095 
-40.771009 35.849706 -5.646624 16.514998 3.965423 27.840595 -30.196593 -7.556497 -120.945315 7.109709 45.481496 46.243012 17.661452 3.386068 57.318206 -56.254627 20352 20096 
2.291065 37.591792 13.072560 50.221748 -20.315346 -8.694961 -95.402004 21.235145 -111.767744 -17.699741 55.029804 59.767045 16.157841 10.404183 11.630711 -23.522101 20353 20097 
45.373669 26.738109 14.404052 42.887355 -56.997967 -47.935956 -9.990530 -14.478732 -24.289487 -36.363790 24.703198 19.812199 16.987011 21.288097 2.784233 -24.921461 20354 20098 
2.299880 17.669181 30.559106 47.713695 -32.090521 -50.035943 63.880410 -79.995807 53.251007 -54.943282 -3.601663 -9.611012 16.788258 20.317153 33.362614 -55.563074 20355 20099 
-46.338005 17.250271 18.941671 24.876324 -12.352566 -26.089787 113.080416 -89.368324 32.425780 40.437603 -0.301738 -0.120736 8.953493 9.966482 -66.570805 -24.790079 20356 20100 
-70.788737 22.264320 10.071266 23.885681 11.503658 13.007595 28.053578 -37.997362 37.047915 80.371401 21.516656 19.842250 5.598569 -16.081207 -161.617343 13.321759 20357 20101 
-107.537679 43.095515 37.291207 44.624934 33.171794 20.871058 -69.316098 -2.200731 60.077037 49.430329 21.376212 5.459750 -16.927541 -40.402159 -52.539122 -26.474507 20358 20102 
-96.499299 70.130744 53.227469 19.149028 12.509392 11.072364 -91.043248 21.453550 -16.258121 68.432398 16.201736 -13.726800 -30.885116 -22.587635 49.479396 -50.655858 20359 20103 
-84.401681 49.230507 51.810764 16.457056 29.779907 38.234097 -88.021829 -13.088821 27.507831 29.164974 -22.398824 -52.914819 -55.042514 -16.789135 68.112728 22.359759 20360 20104 
-70.732220 3.395933 -9.883481 2.016874 15.969179 34.447713 55.615349 -30.829347 80.223385 -79.984354 -54.980825 -65.284997 -21.195314 18.396852 41.443201 81.382054 20361 20105 
50.732839 26.909411 -69.692785 -41.202435 -24.074689 -6.550714 68.318491 -4.440119 17.912285 -110.877933 -12.873778 -12.738701 40.129796 49.659670 -22.096345 50.885006 20362 20106 
149.225287 -19.556089 -51.838093 -43.449575 -26.127348 -21.236558 11.206612 1.775763 14.557541 -11.655327 25.249329 23.885348 10.450656 -6.400133 -48.824007 -7.263407 20363 20107 
128.046884 -112.520701 -41.242360 -44.609808 7.256943 -10.560385 -8.781795 82.411223 -16.582578 61.422438 15.450571 29.785287 1.492666 -21.551515 -36.616522 -33.400347 20364 20108 
111.090188 -141.263506 -42.890480 -50.602257 41.671404 2.266388 -34.081728 113.809990 -114.156932 71.914802 7.327954 45.395291 38.668291 17.526246 2.487668 -69.163319 20365 20109 
75.368743 -144.211430 -14.801013 -37.758275 26.521215 19.126046 -5.244905 80.999619 -46.293380 29.321971 -20.841092 20.097886 30.190585 21.922060 20.005931 -54.403961 20366 20110 
44.675395 -90.350805 4.333127 -22.259669 7.116687 16.891552 -25.021327 64.615041 147.724206 -38.106440 -69.385680 -48.057221 -40.376770 -20.120645 -8.114750 76.437300 20367 20111 
27.754260 -44.633645 1.795999 -26.436278 0.347130 0.024302 2.812920 38.335311 199.695918 -76.054525 -59.413004 -70.338362 -84.987497 -55.052511 -1.718750 147.868731 20368 20112 
7.466964 2.015631 13.849397 -17.063046 20.445581 -12.795905 -18.274478 4.355855 -34.331380 -76.665355 -6.777236 -32.313976 -3.022394 30.203817 64.264364 58.642159 20369 20113 
-1.872053 34.381931 19.539177 -0.837903 19.081514 -9.847351 -45.763382 -14.681934 -155.400443 -17.022382 8.384553 13.496718 55.303752 85.200721 51.091759 -41.054678 20370 20114 
-21.111336 14.956246 11.789457 11.632965 16.642551 29.508520 -61.339346 -2.079058 -33.453457 13.557160 0.535427 14.798163 12.791943 19.219158 5.375666 -32.824060 20371 20115 
-49.403689 -9.543659 -4.046043 14.740316 16.548398 42.559710 -14.644618 3.789586 -18.400497 9.936056 37.323115 40.343480 -15.720237 -36.259738 -22.792780 5.570601 20372 20116 
-42.707206 -37.697278 -35.498673 -29.645025 -18.882922 23.653872 146.800548 -6.023317 -22.784037 -4.425325 66.638960 84.528603 -24.814577 -52.084311 -58.369329 11.310016 20373 20117 
10.857674 -39.041296 -29.000266 -38.861834 -30.429311 5.431566 159.558975 -38.515508 -19.914303 -16.354303 44.831888 49.331418 -20.159553 -24.884397 -24.133800 11.283048 20374 20118 
15.565289 -32.091879 3.287842 -16.654833 -22.701905 5.272975 95.420254 -48.097744 3.673995 6.259949 16.450433 -1.531494 0.410887 2.428378 -6.638738 -21.053411 20375 20119 
3.502388 -1.492305 20.482106 -5.138020 -27.764800 -16.344924 56.146502 -29.390947 4.893857 62.046638 11.418252 11.379884 12.601003 -2.620839 -19.621976 -80.096819 20376 20120 
-18.300520 37.153823 12.659690 -18.616133 -45.763017 -32.870442 94.013484 -28.276885 -29.282688 106.471221 16.619187 12.983231 -7.147565 -23.918069 1.610426 -77.335741 20377 20121 
-33.394106 60.993368 16.313081 -21.635816 -23.911337 -18.713565 109.174005 -88.825630 -10.949638 58.695443 24.874467 -0.813438 3.087372 -10.098791 -0.502965 -64.292449 20378 20122 
-47.124639 100.039910 35.945271 31.799880 8.664253 -5.147288 25.648791 -149.826178 -47.076812 -34.616832 35.025848 12.742662 63.825641 44.732708 10.029192 -84.662407 20379 20123 
-85.683740 78.101917 20.222177 85.472514 29.795851 -4.162562 -66.375175 -57.370982 2.910906 -59.998286 0.948717 -18.357912 54.167338 29.812842 60.088958 -69.572563 20380 20124 
-50.431349 14.134056 -17.663858 88.791407 42.882638 -30.122180 -131.748333 84.157620 84.147329 -68.166345 -21.552300 -50.182843 -2.449970 -30.208223 77.457329 10.955023 20381 20125 
6.662369 2.700077 -40.330416 35.377468 19.644093 -23.269092 -84.851594 84.067096 44.867546 -63.965450 -7.386615 -29.876096 -25.454200 -38.205667 39.326470 80.694010 20382 20126 
-28.234534 -26.439773 -41.020803 18.336157 14.651054 10.349186 44.278573 8.080141 -22.682178 -41.389432 -26.533076 -21.523959 -27.624915 -5.182435 34.280780 110.655214 20383 20127 
-66.540338 -30.117296 -23.007848 19.004071 9.109626 32.943302 96.116398 -37.507914 -42.533233 -39.525437 -46.416591 -22.309770 -35.208096 12.633497 27.630596 145.729035 20384 20128 
-19.641147 39.287596 34.262235 21.685876 28.421295 51.590528 -136.853710 -18.752674 -14.113739 -5.967465 -11.239197 0.940404 -37.216307 9.110254 -36.405955 94.892005 20385 20129 
0.385792 44.492072 50.986484 14.482525 42.858087 54.059832 -225.353649 18.088856 7.302092 -19.327299 19.790131 14.967851 -20.191300 21.146042 -45.871864 22.184346 20386 20130 
6.535029 20.313567 27.340567 -20.893399 -17.279902 18.251293 -30.966315 -3.300841 56.857731 -38.385076 14.901344 -0.891290 -11.211127 15.951950 -23.745747 -13.477785 20387 20131 
21.350156 61.408017 39.672168 -1.337511 -35.683011 -35.245249 -26.953412 -23.211157 43.284799 -2.901308 -3.587722 -16.111448 -13.786507 -0.266062 -25.731732 19.099980 20388 20132 
-10.439311 153.847784 56.426330 37.819715 -25.566568 -101.659293 -148.933338 38.504681 46.410496 37.624318 -39.622426 -44.363983 -27.642034 -13.722214 -51.609724 92.925566 20389 20133 
-25.128349 144.533576 44.906543 68.036615 3.440092 -75.065967 -282.332325 121.609816 63.724583 54.770682 -48.683483 -52.076211 -23.766754 -11.548574 -27.127039 44.706795 20390 20134 
-5.426138 -70.225970 -32.289980 46.241244 40.223469 30.442839 -110.361833 101.396369 -11.213985 44.832627 -15.724250 1.205707 -4.711099 -25.029865 40.767134 -30.126270 20391 20135 
49.373834 -231.220375 -64.628448 2.128864 9.741091 49.411474 139.883343 45.310218 33.033132 56.751769 13.444343 9.235079 0.691072 -70.828622 -8.574110 -33.752664 20392 20136 
89.569107 -127.296578 -15.977151 -17.080414 -49.400022 11.855706 109.603561 -1.274209 24.013550 15.304660 -9.128036 -32.895366 33.660568 -25.354329 24.921742 -30.522789 20393 20137 
84.519375 5.575079 -5.205349 -41.641155 -62.781762 2.554380 46.401671 -29.422239 -65.916114 -48.848697 -27.565933 -6.875524 66.050597 45.596123 101.575245 -64.015698 20394 20138 
100.465417 1.040269 -18.941482 -64.266681 -27.473825 15.306901 4.778621 -10.909220 -34.693206 -33.057183 -6.228483 47.591402 30.670885 53.853152 -70.116397 11.979830 20395 20139 
118.124107 -53.943260 -61.039399 -103.716015 12.737545 31.472142 44.538575 11.826304 -2.767945 -38.218576 -32.464781 2.955271 -8.013889 69.640012 -102.115321 110.985230 20396 20140 
76.800945 -70.684721 -54.537495 -79.283430 34.378721 39.675882 59.120220 -5.470123 -23.793707 -81.455864 -50.230948 -40.249957 19.403790 85.621493 58.279099 32.426094 20397 20141 
-80.399989 -17.875679 22.284601 2.242011 22.761125 23.678915 101.461148 -74.152132 -40.494308 -50.629123 -24.765044 -5.996480 47.836402 65.953717 60.808573 -52.713738 20398 20142 
-150.703048 24.860098 20.885392 22.539508 -1.519314 -5.022429 148.634475 -59.674681 4.161989 14.701378 -22.600002 -3.055137 36.264383 30.474294 -0.508692 -59.438215 20399 20143 
-35.114192 29.627474 13.334199 10.168714 -55.978233 -82.241448 112.260009 7.943480 49.368978 32.483088 -23.819559 -18.481480 16.334667 2.642441 -28.151157 -30.376979 20400 20144 
41.707828 32.254473 50.731245 1.766322 -80.178866 -124.719268 63.287373 15.150893 17.405531 35.972980 8.540446 10.811614 0.690716 -12.246046 -16.214107 -44.961134 20401 20145 
86.396470 2.129529 33.406255 -27.841612 -48.132388 -61.741851 40.806825 -25.023228 -35.819122 64.320176 69.331535 62.563574 7.135179 -23.194084 -20.375508 -123.961750 20402 20146 
-39.131165 51.789701 52.443994 16.036460 24.447439 39.875350 -55.983811 -89.477967 -41.540953 87.328493 106.522048 80.399842 22.749112 -30.377959 -33.274179 -191.806403 20403 20147 
-290.578827 133.679476 86.876730 89.448395 78.109820 95.837596 -104.734500 -88.638691 -31.881524 119.125619 101.581934 55.067217 0.703389 -59.971767 -11.532022 -173.092845 20404 20148 
-143.602563 28.852881 8.010084 30.843998 14.667295 52.331575 39.446934 -30.550204 -42.323594 115.649451 70.591992 12.624098 -40.579244 -97.199553 16.989631 -35.752783 20405 20149 
137.686825 -55.880020 -51.294361 -23.969172 -26.262417 -15.901963 53.874134 -18.253026 -41.456824 28.052945 14.439394 -22.372142 -57.655719 -62.701559 38.835711 102.858195 20406 20150 
49.919040 -71.371199 -59.774253 -4.743015 6.766209 -25.083205 72.917598 31.368823 -11.026002 -56.337851 -17.384546 -16.476629 -33.815710 4.506745 -26.518299 157.052293 20407 20151 
-34.730411 -94.239373 -98.846086 -48.410155 11.447080 19.859978 153.064704 91.854263 3.558628 -90.037906 -13.805410 1.179494 -9.039187 35.138905 -49.990619 122.996095 20408 20152 
21.173736 -16.742569 -57.339541 -40.989276 28.069598 47.374951 -5.963872 24.416972 18.630839 -29.390163 -36.564395 -18.632230 -11.888936 20.323605 29.571137 27.950143 20409 20153 
60.237875 29.855349 -12.904358 7.364322 29.155278 20.418397 -137.273052 3.146190 18.617531 43.110906 -11.924934 7.230546 6.390924 1.664993 9.849124 -74.939090 20410 20154 
35.476294 7.656201 -25.461776 0.028371 16.830922 14.579369 -116.726900 67.617518 -14.637396 28.238392 30.319719 48.425190 29.882963 7.465402 -49.962261 -79.732009 20411 20155 
-36.527832 24.345904 -0.674474 18.218960 26.205315 0.575629 -96.888636 64.745134 -38.641247 3.187162 24.394796 60.179561 46.930998 31.309045 -57.442020 -69.918295 20412 20156 
-42.826395 19.224629 -14.497403 -15.746507 -13.528242 -25.476949 23.156387 69.694480 -54.104352 24.205964 28.256667 59.978567 50.171446 56.224911 -74.222025 -90.511178 20413 20157 
-2.389311 -15.581385 -29.624547 -51.002851 -16.137188 6.398615 25.154425 83.182242 -25.148274 75.938189 7.339318 6.060963 -20.470217 -0.248414 -71.774405 28.302839 20414 20158 
98.401729 -63.004728 -25.324911 -58.899739 6.414112 17.728820 3.204637 21.480080 -27.414944 121.633988 -0.797910 -30.844329 -91.125185 -96.902738 -6.711865 132.162984 20415 20159 
128.518107 -61.590959 10.386817 -15.987576 9.548113 -14.740340 -19.798711 -36.335451 -39.784526 5.079554 -4.651820 -22.944717 -43.330663 -75.440092 65.134595 115.937669 20416 20160 
73.014626 -4.850202 25.214026 27.329443 9.544859 -50.971925 -35.346573 -43.934254 58.609974 -250.280585 -88.781623 -55.042954 22.934579 32.198241 172.541253 107.821117 20417 20161 
50.192019 2.568224 -15.837709 -4.249799 7.578121 -6.570639 -35.004599 1.324382 169.544869 -223.862340 -137.157076 -88.101782 7.434683 40.093811 148.543232 83.504602 20418 20162 
20.509545 7.392259 -13.259592 -9.767793 19.986431 3.588877 -53.861108 25.411382 161.156165 -44.127856 -80.574329 -55.164841 -7.844911 -17.661807 2.443100 41.774480 20419 20163 
-13.373174 -25.588762 -17.072642 -47.751493 -11.702864 -20.866478 118.121305 18.234109 127.103818 -22.332057 -54.063752 -56.822732 -25.195520 -26.044097 2.938705 54.415635 20420 20164 
-50.632793 -34.250135 -5.053939 -53.113333 -26.048442 49.183385 164.864257 -44.949001 69.633177 -16.769212 -30.255580 -47.532330 -26.382999 -7.419892 23.956497 34.770338 20421 20165 
-124.615088 54.341538 39.928832 6.560134 -1.283982 67.430313 79.560026 -121.921773 -28.483355 -6.497026 25.339873 -1.655699 10.438102 13.879838 18.821506 -31.843238 20422 20166 
-111.285041 127.546179 76.624958 51.544308 0.247206 26.789338 -102.580140 -68.886808 -34.304320 15.263063 49.370251 13.670735 10.828297 11.149632 -28.069573 -37.908084 20423 20167 
-10.895063 173.416590 97.020815 71.790427 7.190725 -29.417418 -232.757035 -76.349041 -34.580669 42.782744 48.040541 32.186517 -8.852261 -6.158214 -39.723563 -33.695095 20424 20168 
