-4.805892 -3.324238 -42.994313 -46.013428 25.666585 29.405060 10.205079 31.861147 43.696471 54.810992 21.719710 -20.162668 -16.363291 -31.336375 -59.834262 7.469423 14290 14034 
17.480115 -5.032743 -47.421148 -35.964172 3.731032 -11.547246 59.673700 19.080461 67.272290 43.648883 -3.742357 -38.426005 -22.540925 -23.394697 -52.244055 29.426866 14291 14035 
16.467564 -2.765131 -41.210310 -27.247755 -8.748410 -0.556631 45.477889 18.582784 57.809086 48.301295 -6.722681 -28.147649 -30.019521 -20.693613 -38.064650 17.537733 14292 14036 
19.467071 9.090185 -17.575785 -2.168008 -3.359456 7.664099 -38.005604 24.887497 19.597153 14.042092 22.189196 2.650016 -25.755847 -26.840815 -14.789730 8.907936 14293 14037 
6.922232 2.540873 -2.757393 8.320805 -9.677771 -19.838891 -3.737767 18.227912 -84.628916 -31.544401 39.995213 52.827325 29.256952 6.410579 10.612342 -22.929095 14294 14038 
-0.660438 13.311766 41.183988 36.627125 -20.604571 -42.533016 9.872101 -37.196955 -125.951542 -17.129233 42.569565 67.229378 35.705636 14.962686 22.984694 -40.371184 14295 14039 
11.429383 6.272199 64.549611 39.955241 -19.933073 -34.980665 -6.971851 -60.320844 -58.487874 19.196132 47.514844 33.461851 -12.935855 -4.728918 6.249346 -30.269526 14296 14040 
15.351529 -0.012210 40.903056 6.200206 -11.075620 -5.958516 19.143684 -64.552129 -22.074208 32.726514 50.608620 -10.759049 -23.870241 -3.133794 -8.603473 -14.894370 14297 14041 
11.915606 1.850351 9.184652 -15.837613 -33.861605 5.359016 60.071075 -38.681481 4.871498 22.000801 26.642576 -12.118562 -22.272209 -8.394233 -9.724663 -1.005207 14298 14042 
-8.560392 -17.333295 -7.398641 7.476121 -51.941000 5.079094 54.870856 17.807256 25.916437 -32.013098 -48.619885 8.796057 -10.705606 1.890463 7.576189 47.159443 14299 14043 
-31.116211 -10.177442 21.642862 71.785467 -15.053377 8.693003 -84.629352 38.855050 20.278526 -65.752093 -96.748809 -16.510545 3.266246 23.803477 29.390172 102.273027 14300 14044 
-26.679521 5.380316 55.116849 100.810934 35.971299 13.382237 -186.258212 2.276098 12.632520 -44.355180 -58.555961 -10.298688 -16.815594 10.161818 22.097722 85.133363 14301 14045 
-21.625964 -2.097524 64.076477 139.630473 36.371212 -10.932373 -139.102518 -66.319783 -22.301906 -18.300428 11.352106 47.462253 -7.247425 10.468012 3.269087 -24.701698 14302 14046 
-41.514177 -24.703728 51.606444 184.059610 22.468813 -33.628400 -73.012792 -85.275771 -39.574728 -1.929934 26.455262 44.787816 24.829576 31.657725 5.483821 -91.709539 14303 14047 
-43.996614 -48.106818 3.495083 100.974018 33.250916 -4.264432 2.527417 -43.879571 -18.909210 7.508461 0.042273 -36.024181 25.302692 22.002335 21.117684 -21.040054 14304 14048 
-20.484334 -47.629681 -45.726558 -16.004870 30.333128 2.560733 75.310004 21.641576 -1.583541 -1.137258 -26.781415 -92.483373 10.841179 -0.949742 42.927872 69.166278 14305 14049 
-14.134337 -54.875338 -70.252863 -80.508996 23.814506 -4.254117 154.353089 45.858056 11.514646 -12.223291 -56.194367 -107.296028 4.280499 -6.532035 73.099272 93.351305 14306 14050 
-24.821070 -57.537206 -57.085860 -82.497212 15.601366 9.663332 196.761346 -0.084697 36.326407 -4.808252 -80.492660 -93.814240 -4.315285 5.019050 104.111483 37.973498 14307 14051 
-37.622741 -20.367477 -13.586291 -36.678952 10.355819 16.465688 152.116705 -70.682752 45.110362 20.296984 -62.210770 -76.988803 -18.681406 8.938207 96.405620 -12.870194 14308 14052 
-38.300256 11.304444 16.461428 -20.927388 26.407940 40.018352 57.035952 -92.000474 -6.363502 1.404863 19.952959 -2.734104 6.519106 16.379407 17.603340 -52.762068 14309 14053 
4.077500 35.984739 27.766328 -15.797024 35.754305 31.654693 -76.641581 -42.798959 -24.497098 -31.506703 44.985986 70.755672 13.402897 11.741724 -53.699854 -31.182623 14310 14054 
34.593355 54.739817 30.040736 -4.475947 34.187072 -0.206246 -140.633902 -8.244885 -4.386119 -21.285898 28.341700 88.675884 -12.794505 -12.278740 -88.208883 21.936561 14311 14055 
13.984506 72.515208 26.589157 -20.827159 8.872894 -8.849191 -112.726182 20.440766 -8.165102 4.585337 76.064459 119.320256 -33.275830 -45.407614 -111.118538 -2.002969 14312 14056 
-5.381637 59.818967 -11.536027 -103.220106 -42.231366 -5.365679 -27.195969 135.111817 1.385698 37.726635 119.482147 115.365502 -45.109846 -78.559785 -116.508964 -33.781387 14313 14057 
34.293416 15.798024 -44.899360 -137.713329 -60.861943 0.257796 27.767856 165.357540 3.356412 31.620212 79.329137 104.196110 -28.872298 -57.656586 -70.548778 -61.424209 14314 14058 
76.424764 -15.990881 -34.637146 -92.041854 -23.640547 -5.576791 40.625374 54.837081 16.003265 22.703270 6.364571 36.883219 -14.548868 -20.028552 -1.467196 -45.909709 14315 14059 
52.934374 -34.673878 -30.932326 -66.906624 -3.140071 2.891888 68.690178 11.136460 29.387823 36.348989 -14.549042 -57.914789 1.950483 -10.807333 36.131200 -20.547331 14316 14060 
62.489111 -19.086616 -28.431273 -52.510718 -32.652711 0.761256 69.242395 0.188557 26.877633 52.004876 -14.628879 -70.725474 4.334384 -3.854179 39.343234 -33.351596 14317 14061 
45.503334 -7.411057 -20.260147 -24.425089 -31.199077 -1.580550 35.346351 4.026235 15.275860 49.810178 18.122484 -33.924719 9.268012 22.912668 -1.102992 -80.361490 14318 14062 
-15.943255 -2.803061 -14.863528 15.806129 1.748266 8.970801 14.191748 -7.107099 8.790389 -36.088021 14.632268 -0.855035 45.207887 56.874623 -38.653766 -49.908345 14319 14063 
-0.045088 37.222067 4.203136 19.859253 17.906533 -1.177293 -9.566221 -68.402387 29.000604 -57.323249 -39.082152 -26.365391 37.210470 45.368045 -36.209179 47.400852 14320 14064 
32.394398 66.949121 32.414941 18.025145 20.646822 -17.252747 -85.649384 -67.528296 26.485570 -18.449511 -53.635921 -56.353804 -10.954321 4.796561 24.456910 83.654516 14321 14065 
38.125185 34.191335 26.459393 7.875672 14.887946 -12.973280 -83.708858 -24.857394 -9.358593 -45.806816 -60.845618 -63.989266 -25.004607 -7.168830 59.602076 152.571653 14322 14066 
23.765087 21.640147 7.149164 -13.001249 -10.298804 -24.959595 -20.592476 16.297726 -58.024765 -17.600498 -32.204533 -49.665029 -31.650932 -36.063785 44.197298 181.012244 14323 14067 
41.707497 32.960262 -2.449394 -13.253440 -51.603149 -59.757190 5.537869 46.857544 -54.699892 50.045846 12.760859 -6.309125 -45.618772 -70.696212 0.952595 113.564702 14324 14068 
45.555892 -9.608502 -8.176802 -15.851674 -60.362463 -47.466202 65.675463 30.234289 0.855885 35.857080 13.452684 26.608273 -7.659688 -33.581184 -64.691623 29.158572 14325 14069 
-11.849678 -68.058918 0.745959 12.471901 -9.011040 10.222040 107.222348 -41.742614 11.595020 -62.749250 -56.702488 72.079427 58.540919 33.646105 -26.196703 -30.213031 14326 14070 
-40.400576 -66.102055 9.022598 55.046494 40.465764 38.772486 49.962270 -86.766980 20.600556 -75.375229 -80.789298 45.973761 48.392789 52.089685 53.964341 -64.856605 14327 14071 
-37.217426 -13.646956 7.127405 56.184162 16.397982 14.619936 -0.811796 -42.653306 31.704318 -22.394441 -30.674934 -9.316603 -12.297755 33.475813 67.809190 -58.305588 14328 14072 
-19.619351 11.804877 4.610010 37.855503 -30.937379 -16.670666 -14.221522 27.178527 -4.234435 -20.669319 -16.303143 5.981677 -43.637306 17.481048 78.295868 -16.914390 14329 14073 
-22.570616 -13.805426 -13.791174 21.114537 -26.688892 -7.679635 -6.305178 69.726383 -26.975353 -11.905323 -12.328067 7.465628 -53.474079 6.092453 85.278499 5.846242 14330 14074 
-20.160392 -38.210688 -21.101350 25.200977 11.835825 11.525481 -21.708137 52.618284 -32.698468 -14.479006 -15.696876 11.519317 -9.425499 20.209542 31.372054 9.198936 14331 14075 
0.785879 1.287926 6.152445 28.638487 18.541558 3.769625 -70.422940 11.247020 -53.003333 9.904532 26.932157 27.376369 30.723169 27.554463 -9.898003 -59.589354 14332 14076 
-2.885376 6.290878 -8.024222 -12.071294 26.125255 30.014969 -12.737026 -26.713184 -61.871421 42.881289 63.254740 27.748309 24.094121 15.974278 -1.329011 -110.752303 14333 14077 
-25.874406 -4.741076 -7.557024 -3.732423 61.712164 53.945814 2.818661 -76.571710 -9.843245 63.253115 64.830054 22.707083 13.246432 5.271679 -25.230932 -134.234185 14334 14078 
-52.374398 3.743661 8.934035 24.139374 55.571326 32.155374 -13.936477 -58.232895 45.368379 83.418164 69.626761 23.211973 17.575394 -6.238294 -77.831784 -155.130594 14335 14079 
-73.438197 -12.151673 0.919981 43.630859 24.885040 5.063205 5.250932 5.839853 53.334574 53.839285 -10.502504 7.692629 54.192951 19.264050 -71.081711 -106.739274 14336 14080 
-81.400009 -10.097870 13.592364 71.456728 -10.404020 -17.225942 -6.094441 40.173190 72.744891 0.415846 -87.073051 -47.823191 22.398136 -1.760034 -40.535645 81.633047 14337 14081 
-41.671209 -1.935700 24.538388 62.265259 -37.617538 -34.414587 -0.367623 29.203010 56.485359 -67.377951 -93.098446 -102.634235 -35.305761 -46.182751 1.719239 286.394547 14338 14082 
-0.283516 9.211818 28.858122 54.184412 -33.037730 -38.456956 -17.495585 -2.980564 9.860005 -76.263886 -18.389468 -120.243365 -21.262539 -26.926304 49.680447 203.545110 14339 14083 
1.056104 -4.186966 6.550398 25.246194 -2.236473 -17.464912 8.974600 -17.938945 9.215458 8.924101 70.805094 -97.536376 -4.297733 -26.273749 5.247494 33.915711 14340 14084 
-12.624575 -19.613688 -19.238737 4.099142 21.269031 2.222454 54.807751 -30.921378 -19.860838 50.749607 59.799894 -28.194065 33.897431 -0.129220 -26.699413 -69.563395 14341 14085 
-12.704014 -10.380657 -20.158026 -2.473838 24.393321 17.405556 4.416649 -0.498991 -58.978028 41.648039 56.630961 20.124719 68.230097 33.550013 -21.176995 -140.028806 14342 14086 
12.564932 14.285875 -5.988711 -29.251852 23.667420 23.732227 -90.738121 51.728231 -37.224826 25.118208 56.541098 26.657505 62.448512 26.078377 -45.552762 -114.066112 14343 14087 
35.024257 44.657678 9.710444 -76.338021 28.878821 27.221326 -134.456630 65.302126 -28.741604 -22.620062 5.317020 16.733498 32.781999 8.273435 -23.847322 12.103035 14344 14088 
36.065406 34.184876 5.882823 -113.285315 29.052404 30.296908 -53.343074 31.145971 -48.163761 -54.203009 -42.321672 -18.648377 6.053248 -9.274578 37.419729 129.138420 14345 14089 
22.657517 10.521141 -8.152493 -88.992723 -5.902793 13.471630 81.928923 -25.531201 -39.732229 -40.070212 -20.426193 -1.462635 -9.352740 -18.244606 35.684273 93.604342 14346 14090 
19.744547 23.290838 0.389484 -52.263496 -35.453890 -8.390169 70.711823 -18.029137 28.233190 -29.588089 9.912528 29.508572 -32.588201 -31.817268 -10.459439 36.798706 14347 14091 
20.966486 22.835667 10.063825 -29.699701 -50.067964 -25.990672 18.832104 33.060255 85.946132 -21.231704 4.409194 41.661372 -26.151374 -32.627955 -34.532474 -17.473191 14348 14092 
14.314191 -5.804991 -11.563980 -18.852500 -40.484351 -14.546505 30.527044 46.411092 58.392015 24.470551 13.372531 38.299362 -14.969477 -30.013118 -40.153769 -49.398095 14349 14093 
7.816511 -15.024562 -9.659929 -5.655692 -24.892639 0.437199 40.910318 6.068795 20.396792 40.007117 -10.368690 10.130511 -2.716578 -8.727993 -21.918275 -26.802883 14350 14094 
7.304461 7.815305 20.417838 22.448100 -33.473136 -7.980444 19.847928 -36.380051 5.490037 10.078527 -4.759867 5.771144 6.055685 -2.909908 -7.332660 -12.392957 14351 14095 
0.772859 14.355471 28.883837 54.355569 -27.282375 -15.970132 -2.803375 -52.311853 15.120714 31.737870 11.554857 -32.574983 1.882979 -17.242504 -16.455423 5.976490 14352 14096 
-3.887723 -2.799662 41.503324 110.913445 -21.942972 -42.652908 -24.769950 -56.363554 36.854650 81.750339 0.932810 -52.031609 -22.387396 -22.293011 -35.895625 13.069842 14353 14097 
-8.105752 -2.313706 58.517265 144.195819 -15.201238 -49.979556 -63.780644 -63.332189 41.359021 42.751080 -41.247811 7.790180 -35.452665 -3.749945 -38.388710 26.938850 14354 14098 
-19.411383 3.863418 40.762068 121.088107 1.451621 -23.244785 -63.017991 -61.491055 21.877363 -3.572302 -79.613467 30.438354 -36.085905 24.898434 -4.862062 46.919585 14355 14099 
-7.507077 13.360334 21.611266 71.598860 18.433043 -12.915915 -64.768033 -39.812477 -27.229658 1.025329 -41.446884 33.759286 -53.480653 35.191166 11.932404 40.249010 14356 14100 
-1.814059 6.151056 6.510022 12.169334 35.593529 8.235939 -39.812786 -27.033036 -25.781459 -30.041656 -21.501325 60.586740 -47.256182 48.997413 17.795409 -2.798941 14357 14101 
2.412525 -3.488697 6.011934 -3.916531 19.654926 11.481551 -25.829159 -6.326549 8.285504 -39.462975 -22.944884 52.583675 -44.762735 44.109862 32.122359 -29.930806 14358 14102 
12.176091 -9.410884 4.077173 -9.234149 -0.929602 -0.193606 -14.628948 18.143925 15.688080 -16.572814 7.311196 6.033478 -33.099243 23.568135 36.368151 -39.296984 14359 14103 
6.735692 -32.800827 -31.025293 -62.188265 -6.762572 11.895100 64.576464 49.569700 -6.257661 -9.695610 83.491675 -9.784402 -5.946623 -13.617278 23.357837 -61.547938 14360 14104 
6.925796 -37.520428 -49.748058 -108.910192 -13.024998 12.285254 112.216356 77.776269 -83.863262 -22.529598 118.993562 45.823878 22.489420 -20.955135 8.399904 -68.358770 14361 14105 
1.771111 -21.551244 -48.279642 -97.104326 6.177454 18.733616 74.673414 65.579618 -87.230754 -32.441754 47.362234 -4.760022 48.326207 11.250666 50.969877 -33.476454 14362 14106 
0.918891 -15.895190 -43.465297 -65.771355 30.226964 30.135019 38.124625 25.726343 19.879599 -29.731639 -30.728873 -95.405321 53.342159 12.614814 61.426287 8.602973 14363 14107 
6.838502 -0.552854 -20.349235 -37.343587 33.273131 20.510042 14.488265 -16.864263 49.672614 -33.015155 -36.493511 -46.776547 39.540439 9.898329 27.873819 -10.699989 14364 14108 
8.997085 15.925817 -5.824046 -30.097567 19.877140 5.164084 9.114047 -23.156559 -20.987983 -5.619232 1.089622 11.863499 8.911041 17.878768 23.552720 -36.688436 14365 14109 
5.336197 14.527579 -16.714948 -50.865227 -0.219216 3.767866 42.919046 1.248703 -72.725801 22.767379 36.066649 49.446421 -3.471238 10.121998 0.254774 -42.460183 14366 14110 
6.680163 16.319468 -19.675814 -64.173300 -10.553784 11.494984 27.656607 32.251676 -43.762109 21.299404 60.497472 92.001925 -11.163312 -21.733864 -48.534309 -48.605207 14367 14111 
26.648003 14.455979 -14.154481 -62.568914 -19.508585 6.779867 -6.662694 55.010825 -2.370813 21.937671 66.659479 120.926861 -23.293916 -60.706637 -79.999380 -43.153265 14368 14112 
20.131769 2.016487 -18.738866 -18.295886 -31.359438 -9.806837 19.616000 36.436772 2.474017 26.637657 27.460238 81.253974 -12.382223 -46.474678 -44.171028 -34.797957 14369 14113 
-3.704857 -18.064555 -29.416302 25.731805 -22.908817 -10.958859 61.484119 -2.162534 -9.218602 14.403257 -5.670029 17.852253 13.112182 11.255637 11.407388 -53.142086 14370 14114 
-20.638859 -35.864201 -24.286144 45.877588 -5.935221 -2.160903 41.766627 1.241113 -44.476635 -17.435111 -7.330321 7.268442 35.825207 38.986051 35.588327 -48.425961 14371 14115 
-12.323454 -34.395794 -8.801923 17.242792 5.613188 1.244639 -3.600155 35.020706 -46.846115 -31.990803 -49.847982 -23.303931 17.832140 26.102204 51.774630 56.279857 14372 14116 
17.801620 4.667908 10.400070 -26.832199 15.561678 -9.538640 -44.391908 32.331472 -29.447911 -17.671745 -76.618594 -72.482839 -15.134829 16.464099 64.078713 130.813107 14373 14117 
-20.443911 39.195890 24.858922 -14.393151 24.464908 -4.819784 -52.879993 4.017119 -1.528187 -6.017702 -54.131910 -87.634182 -21.862654 12.425398 34.578994 124.170243 14374 14118 
-66.609282 46.770668 31.988913 6.624133 17.064813 13.852784 -33.674075 -16.017954 16.185520 -14.063972 -13.946380 -50.736215 -14.399959 0.285616 -10.962233 87.637623 14375 14119 
-41.405646 38.796143 28.838345 37.355500 -6.821107 0.264992 -18.871024 -38.157204 21.908785 -17.064671 5.591109 -7.828194 -3.004931 -11.195706 -28.268498 39.862106 14376 14120 
-24.488738 -5.641963 12.528033 71.928815 -7.297477 3.139630 -7.323636 -42.844664 50.488551 -7.041433 2.604659 -1.646092 27.703570 -3.338547 -43.290054 -25.480653 14377 14121 
17.556816 -30.897977 6.521854 58.432659 9.157305 21.067536 -52.854294 -28.983899 62.569108 27.740343 -5.277834 -17.254341 49.122461 5.053629 -53.810940 -68.142426 14378 14122 
85.874818 -15.433842 -3.105549 18.407994 25.877427 36.981191 -131.441174 -17.160866 75.177730 99.500821 -13.977640 -48.845943 2.119427 -33.299766 -50.029940 -30.644689 14379 14123 
81.539523 -8.381857 -14.168377 21.611640 19.024236 34.091428 -147.051242 13.334648 79.030550 121.166886 -11.895704 -70.438883 -36.464515 -49.918550 -36.865509 5.385725 14380 14124 
60.292971 -11.802288 -21.832625 38.075851 -16.335895 -2.354424 -70.755131 24.711540 79.044662 56.769832 -22.026603 -54.840696 -28.175296 -28.182348 -38.775228 36.185677 14381 14125 
44.223403 -13.053323 -20.257728 45.199450 -7.466980 -13.191637 -7.760157 -27.693028 19.551743 -59.047692 -46.868301 6.723673 3.201317 18.033697 -9.641165 68.046727 14382 14126 
4.486886 -1.020345 6.412991 77.186450 22.143627 -8.697562 -21.123850 -79.388198 -32.286608 -113.084809 -74.550345 22.667373 19.930787 53.368206 42.589023 81.366374 14383 14127 
-43.238841 8.358818 36.633486 112.385158 19.898916 -10.049950 -39.602249 -84.385339 -10.367121 -62.062766 -43.461639 3.573165 0.422331 35.042386 50.096761 26.756882 14384 14128 
-47.154274 -5.618967 29.959133 56.521388 28.506823 -0.687932 -17.830071 -43.696101 1.649162 7.887012 8.586296 17.197883 -17.933864 17.284417 44.484073 -79.154978 14385 14129 
-2.149124 -13.406553 -6.115574 -58.595490 23.780215 3.660237 36.350751 16.475538 -2.373165 58.073540 52.585898 31.322685 -30.317681 -5.369420 36.194202 -140.116060 14386 14130 
3.788648 -3.950266 -21.083524 -97.632600 -7.218621 -11.782488 77.637610 60.241240 -36.465434 -19.293366 48.827807 43.204608 24.473525 18.338829 50.164707 -129.250675 14387 14131 
-1.383866 -11.953469 -32.942858 -105.159825 -20.785357 -7.410048 94.309825 85.325598 -48.161045 -88.859699 8.070213 39.543787 63.170109 37.906288 35.962869 -47.632521 14388 14132 
-19.967279 -26.543570 -31.549668 -100.544946 -8.756777 6.623386 111.881339 68.857515 -50.880845 -51.655134 1.408268 44.498428 22.592940 -2.527111 -13.027734 49.591189 14389 14133 
-26.010075 -6.518857 -0.064143 -42.428419 -13.936631 -2.902081 91.426038 0.434169 -48.925974 -38.927257 -15.751714 35.396851 1.197468 -26.855595 -18.679573 112.545795 14390 14134 
-1.304760 16.003627 16.370114 17.693738 -37.285824 -16.625288 53.141667 -47.993273 -21.061339 -14.414716 3.445580 18.926430 -16.610812 -49.896979 -15.019672 94.631509 14391 14135 
-1.166424 2.086627 19.075116 28.903915 -18.704672 -28.259536 30.599381 -32.534407 11.147167 24.170515 13.279030 -2.887116 -31.286606 -52.490156 -12.815936 50.883101 14392 14136 
10.366886 1.684537 29.362009 25.833650 14.885024 -22.923933 -3.096145 -56.112029 46.153218 39.472523 3.469153 -65.123912 -30.190263 -28.467806 2.699896 31.987190 14393 14137 
-5.197842 14.896985 35.407228 46.038486 27.019362 9.452838 -51.658872 -75.958185 44.174803 16.004831 25.106846 -100.757292 -17.921012 -15.205095 14.985384 33.611534 14394 14138 
-17.352771 14.774760 4.391379 14.447381 5.284075 23.759706 -93.080508 47.775978 7.810347 -29.354961 36.532325 -34.554444 2.573294 -16.113575 0.719113 32.387902 14395 14139 
13.188857 31.556521 -18.781043 -55.749859 -27.755692 17.238611 -55.478430 95.781035 -20.819029 -42.004786 37.635974 34.879527 5.168868 -18.254705 -17.029661 20.423812 14396 14140 
7.959358 42.075078 -10.007585 -76.621628 -26.842461 32.344017 3.227545 27.865676 -38.529997 -33.685577 59.030664 13.230657 25.449080 2.131105 -20.656262 -6.969670 14397 14141 
-17.533845 27.140898 -17.145375 -55.402973 -17.488666 20.386851 17.846660 42.196450 -46.063509 0.016281 80.093848 -14.763887 42.131826 17.738773 -24.971820 -54.181512 14398 14142 
-29.514305 0.730345 -20.628834 -29.384254 -15.093698 -14.724641 58.535635 50.079751 -26.976421 76.132216 55.478693 -33.759859 -9.045701 -14.801306 -9.448091 -37.579531 14399 14143 
-41.048137 -20.751356 -8.223211 -24.937602 1.409419 -27.858561 125.622019 -4.212572 -21.719488 72.728731 -20.479311 -20.428993 -30.058295 -5.450540 27.864621 -2.456725 14400 14144 
-52.895414 -27.073304 3.057248 -5.802928 22.448461 -30.170175 136.905848 -46.469736 9.349795 11.344206 -118.445892 -1.598675 9.455852 48.327275 27.783271 13.784168 14401 14145 
-59.915362 -28.542112 2.087794 13.744421 3.306293 -25.486650 121.203245 -26.397631 64.725951 59.384605 -87.966914 -8.783029 -11.302067 14.118654 -14.353258 -15.823941 14402 14146 
-30.273260 -30.765112 -7.939733 14.036024 -24.443024 -8.385617 84.125223 3.645498 38.833019 42.699086 -0.669432 39.447568 -31.868888 -11.590655 -21.571808 -55.278890 14403 14147 
6.555574 -32.579874 -8.493554 29.989970 -10.778304 24.149378 -16.844384 8.001193 -2.012420 -76.311285 6.017780 73.437259 18.099422 29.947242 1.316306 -50.494304 14404 14148 
12.446736 -12.476960 11.167214 53.630668 10.209431 50.822727 -140.081331 14.281515 9.790707 -51.786173 13.562606 28.129229 26.671875 22.755226 -6.921710 -42.201759 14405 14149 
20.421441 46.455568 44.014132 63.007336 -7.259427 11.775334 -197.927097 19.512713 30.940676 16.416475 0.784406 -30.376201 0.952157 4.451712 -21.355510 -1.813715 14406 14150 
22.091964 53.987910 36.816124 42.566150 -25.655271 -41.736451 -97.591683 9.521257 28.602659 43.774524 -14.085797 -56.891660 3.647396 7.300344 -33.706961 21.359495 14407 14151 
-4.753764 -17.782576 9.402458 46.312725 31.685361 -15.447119 -21.902648 -27.514437 11.672037 57.427320 -6.694842 -53.813508 15.528532 6.989303 -39.920943 8.812100 14408 14152 
-10.135851 -46.327371 8.357365 21.411577 70.041352 5.591441 10.363774 -59.302287 3.635129 33.794733 -5.408380 -50.428442 36.914734 17.405721 -22.222456 -13.691039 14409 14153 
22.986348 -12.825862 16.527987 -29.332079 54.994833 9.736441 2.010138 -64.097805 -3.604797 10.564686 -6.159809 -35.459037 57.325363 26.057390 -2.236398 -46.487398 14410 14154 
32.681885 26.535167 35.433902 -4.271666 29.650959 1.396662 -78.011044 -43.415865 -7.590363 -2.029464 9.177261 -21.558352 48.998910 26.195044 23.846783 -77.039819 14411 14155 
12.484172 20.661912 28.269778 31.092852 -17.122163 -12.850629 -54.700396 -7.835526 1.792246 0.028453 29.006010 -16.133121 35.025136 8.863895 25.555136 -84.137755 14412 14156 
-7.415313 -4.211196 0.018746 39.660564 -41.026594 -0.655121 -15.861684 29.490597 28.156030 -6.093045 6.125622 -4.981616 28.810983 -12.828340 13.539968 -52.729601 14413 14157 
20.986729 6.540308 -2.291065 -27.430918 -53.085480 -12.075905 -1.962901 69.319231 30.048362 -0.040241 -8.135852 24.319791 -10.066131 -30.699110 5.505769 -10.932588 14414 14158 
51.196868 18.288941 0.582159 -88.382575 -30.743259 -6.419108 -8.012803 63.489777 11.769374 11.789004 -19.368787 54.638406 -42.458296 -34.475640 -19.743003 37.848942 14415 14159 
37.066411 11.970340 -12.805107 -60.710133 3.849012 3.921058 -14.930902 31.639321 -16.049794 -1.941684 7.254033 64.484851 -61.877637 -53.926670 -46.261478 108.318378 14416 14160 
23.047582 -6.045358 -31.998584 -30.632945 10.169018 -1.121112 10.711193 25.870206 -88.067204 -17.157062 77.523886 101.845913 -54.050263 -60.780876 -62.874158 103.559764 14417 14161 
3.203987 0.904003 -29.302132 -8.496044 18.594443 10.700581 19.612298 -15.217135 -93.226117 -13.387920 74.073645 100.106833 -21.958083 -13.670668 -51.669929 19.732239 14418 14162 
-4.169494 26.709418 -11.077390 -3.636135 14.661366 8.895904 25.797542 -57.181212 -31.230771 -21.693819 -12.019442 46.280374 -16.586693 25.488657 -10.293186 20.054881 14419 14163 
1.930740 31.607515 -7.239480 10.574056 -9.398862 -9.523566 30.643295 -48.593698 -18.376079 -31.451147 -49.435439 20.336959 -19.299159 32.813955 25.371395 40.039515 14420 14164 
1.726807 35.237992 -19.252981 12.338446 -29.376712 -13.034401 5.552758 6.808092 5.177924 -37.992831 -43.554302 17.476539 -41.604970 14.149143 59.166742 27.181755 14421 14165 
1.654506 40.829542 -17.961300 6.700032 -33.069503 -17.835798 -30.093810 49.776330 42.837185 -47.352654 -87.810543 5.117810 -64.320472 9.131814 98.409652 43.987207 14422 14166 
14.686012 25.861492 0.602808 8.421131 -38.375369 -38.646284 -14.620212 42.070421 30.715559 -21.596642 -61.918750 -25.599866 -74.645718 -3.138462 129.573710 26.610168 14423 14167 
27.390002 -29.348573 4.324903 -8.514234 -27.277248 -30.497135 45.306368 18.615916 22.837377 -1.809995 -21.041529 -54.090836 -45.460514 -5.143147 97.599875 7.108769 14424 14168 
33.280000 -78.942412 -1.223507 -11.641071 -14.914381 -5.873180 90.630744 -11.316193 15.272420 -1.488123 -12.500023 -37.846651 1.742896 13.592901 17.740477 3.486103 14425 14169 
14.638969 -79.984902 2.677771 14.695711 -7.027742 2.719973 69.156329 -16.876108 -57.691154 14.195822 22.548623 -4.105919 24.469505 25.682256 1.542814 -26.641947 14426 14170 
-16.857393 -53.896980 0.094716 15.603030 17.232024 20.240802 34.929908 -17.346108 -67.809180 45.573695 30.225168 -16.444264 24.610422 27.215198 -1.806219 -41.564820 14427 14171 
-23.457674 -23.703234 -6.949467 -8.994475 36.612278 29.906317 8.171870 -11.585614 -2.744928 42.250839 33.249626 -32.060429 15.770924 15.827660 -12.833034 -59.460658 14428 14172 
-26.555216 -7.049170 6.799981 21.400569 23.477821 9.821328 -27.608582 -0.286732 -2.064097 25.381719 50.959530 8.153876 29.525984 24.698786 -19.313070 -117.342727 14429 14173 
-18.923570 3.567900 18.349985 18.111970 1.184324 1.479395 -24.035904 0.265899 1.773267 37.357519 69.609765 77.436545 38.980509 7.661045 -53.357449 -179.461201 14430 14174 
-8.754820 9.763941 10.945867 -12.318393 6.296907 5.909101 -5.867623 -5.974980 19.585112 22.147061 53.156301 57.203342 31.977612 -30.584513 -62.546863 -90.938052 14431 14175 
-8.473004 10.535512 12.408628 12.829053 3.108086 5.912565 7.874533 -44.195373 5.062419 -29.374399 28.966800 -3.814955 20.942250 -44.035969 -46.470687 68.724540 14432 14176 
-27.516341 -7.395607 -7.545459 22.065419 14.134291 26.403479 41.203706 -61.349488 -8.120800 -55.610547 3.795676 -29.523652 19.892119 -29.336889 -22.748516 121.652608 14433 14177 
-31.421045 -18.156517 -48.691521 -2.515762 26.732833 33.118291 66.334804 -25.401081 11.119988 -18.188847 -15.432665 -68.415170 -4.649005 -26.448436 3.309365 118.704770 14434 14178 
-31.922416 -10.553688 -42.081976 25.323596 10.942136 9.692003 50.657917 -12.057571 31.886005 -4.614095 -21.683157 -73.961396 -16.324587 -18.258701 16.947010 86.008921 14435 14179 
-91.084840 5.753423 16.232881 94.299550 13.603698 -1.485437 -21.126303 -16.192972 35.237435 -46.993323 -63.586826 -69.787935 7.863662 17.818977 30.372125 89.075886 14436 14180 
-95.434935 38.791085 45.576170 52.122007 29.482875 -4.262482 -84.210095 17.935374 33.222820 -38.215317 -78.558932 -85.964820 4.762694 33.735744 47.586912 83.430899 14437 14181 
-0.452846 46.560805 19.235914 -62.845241 25.712523 -10.257240 -63.162592 45.208678 -1.276515 -21.811161 -45.569932 -20.312422 12.359132 27.847100 38.250023 10.513775 14438 14182 
66.949986 24.889526 3.160742 -96.693944 11.154073 -3.002224 -14.183338 7.725178 -15.075638 -20.738347 -23.961590 52.407998 34.221645 6.276590 3.713816 -36.844474 14439 14183 
98.076168 1.612621 -10.601945 -66.849141 9.431877 16.448274 -7.362387 -40.755468 8.824076 -0.054063 -26.603283 28.203958 19.449750 -14.328976 -10.513311 -4.978151 14440 14184 
114.274644 2.952503 -10.148673 -43.763070 4.762604 16.430562 -39.126890 -45.381679 13.499106 29.274510 -3.675655 -17.462113 13.379683 1.358238 -30.094639 -6.279130 14441 14185 
90.710935 7.081077 -11.455005 -66.450164 1.626821 15.253424 -41.892125 5.125036 19.778967 57.946585 40.151347 -18.641797 14.869824 17.351603 -79.566223 -51.890307 14442 14186 
70.368180 8.635792 -19.666089 -69.394867 -2.920757 8.311256 -20.883680 25.550165 24.523644 67.553410 61.027782 12.071638 11.694826 16.896550 -117.364796 -76.403054 14443 14187 
37.297135 31.593451 6.647631 -23.218165 -21.096255 -25.705083 7.797273 -13.315986 8.401220 75.498408 58.868285 18.702292 12.876200 27.942999 -110.783095 -91.506309 14444 14188 
-23.626820 46.793345 4.633146 -21.197102 -34.060676 -37.203755 47.235746 17.426117 12.323672 34.774383 42.343893 45.395340 -9.892436 1.235856 -88.201095 -37.979614 14445 14189 
-72.265603 22.688019 -11.736379 11.555543 -35.160021 -17.977639 36.067469 66.828611 15.862227 -41.846870 18.554337 67.985941 -38.412168 -40.306700 -55.097413 73.260645 14446 14190 
-83.134087 -8.228865 -1.883912 111.131003 -23.439459 -12.494932 -16.391122 34.441373 1.194614 -67.333094 -20.205373 30.972156 -70.582271 -65.576722 5.294039 186.236652 14447 14191 
-48.784338 -3.734133 9.777100 109.860602 -15.148987 -20.182113 -32.361471 0.573341 8.614144 -11.154596 -21.193585 3.211136 -82.675449 -74.295902 11.224654 166.269598 14448 14192 
-22.290563 -3.446604 8.679986 77.904293 -17.128357 -14.003517 -37.388626 7.673389 40.483230 49.730937 4.566813 -32.489605 -65.407734 -58.019524 -14.137137 75.273021 14449 14193 
-23.859027 -24.718061 -4.271658 85.726089 -7.296871 -6.887287 -30.333288 11.640102 35.310569 30.199979 -9.916902 -55.922311 -28.884450 -21.761117 16.335036 34.639196 14450 14194 
-23.888172 -33.945726 -22.546639 31.272800 2.909782 6.608412 11.211425 28.378119 5.426487 -14.549501 -28.003287 -15.973194 -0.372457 18.475480 66.114111 -31.117639 14451 14195 
-10.964709 -23.897222 -27.803577 -6.506471 7.499563 26.807198 15.642567 19.222651 -7.345444 -25.990732 -25.238653 4.486645 -3.033320 24.567971 109.855259 -77.301725 14452 14196 
-2.611683 -18.087494 -11.764597 4.928695 11.426072 27.736629 -1.302714 -10.324908 -24.830972 -41.912179 -35.692305 -5.928224 -25.576066 21.693415 170.872776 -58.626446 14453 14197 
6.411652 -24.188262 -1.035283 18.628267 6.422233 2.358705 3.500603 -12.097915 -29.781153 -47.578741 -43.372612 0.801443 -23.369974 23.896538 159.977264 -40.572765 14454 14198 
20.219427 -26.375588 -5.608796 -4.541626 22.187453 -7.084456 22.001084 -20.797497 -24.094785 -19.882276 -40.356532 0.425103 6.511351 34.870240 88.946906 -46.420006 14455 14199 
22.626869 -21.708996 -11.214905 -43.276204 35.396529 8.283938 22.170441 -12.277671 -4.924162 -7.665291 -56.624940 -34.313155 27.859680 60.096892 76.294856 -60.723881 14456 14200 
11.238361 -11.590703 -8.868837 -47.117685 25.137587 10.217102 15.850354 5.133821 -3.004052 -4.507701 -43.919821 -35.475770 75.681771 81.609104 48.662404 -119.045936 14457 14201 
-26.197005 1.098818 14.700158 -40.737295 17.932000 4.856092 31.508146 -3.160914 -52.478349 12.208103 -6.473396 -2.501961 105.181127 72.334249 1.735750 -130.005522 14458 14202 
-47.441629 4.943806 32.387564 -28.537776 6.019177 -6.149873 50.865891 -12.087159 -39.867253 10.553573 14.077062 16.085831 61.052441 20.254286 -53.578150 -28.577790 14459 14203 
-42.151842 2.165710 25.809929 -4.998120 -13.861620 -13.719473 62.280948 -15.525532 -15.435123 -47.401549 9.990809 35.960702 10.056806 1.893324 -57.375351 62.310381 14460 14204 
-36.309488 6.977521 36.224385 32.598862 -30.060749 -12.965594 29.441383 -25.906320 -83.365203 -53.099407 -7.776640 25.178959 25.511233 22.785476 3.297809 67.467774 14461 14205 
0.313612 12.448591 48.091833 31.073594 -35.600710 -12.251129 -38.147548 -5.928242 -55.906042 -9.077257 -7.691890 12.329833 45.593109 1.626481 -12.600855 25.726620 14462 14206 
28.582679 -10.901968 18.648160 -31.538830 -24.015307 -3.588913 -15.265982 38.080160 33.325402 6.369284 -0.086622 10.681732 20.026197 -33.712483 -53.272374 16.668864 14463 14207 
33.756963 -12.562342 -15.556508 -76.143210 -14.643349 8.067852 26.621215 50.459380 2.538069 48.879072 44.308189 39.727205 -4.147341 -43.609235 -82.002210 -5.693748 14464 14208 
37.630070 24.350199 -14.388917 -54.185136 -18.314298 10.033957 -2.715684 17.589810 -51.961689 70.571832 73.342291 56.662319 -14.228934 -37.199341 -72.669303 -24.517176 14465 14209 
24.811090 36.294151 1.513170 -36.700640 22.926129 35.555343 -49.951868 -34.447374 7.575298 40.148826 22.120655 -27.306218 -13.557228 -25.976355 -8.130834 5.125855 14466 14210 
18.428155 21.400979 10.357880 -34.342871 41.614616 52.160426 -89.563659 -20.055527 41.252106 -13.614674 6.719061 -63.443925 22.058929 0.633564 29.559705 -23.164767 14467 14211 
6.838503 11.658553 21.336210 40.873784 0.502838 8.486744 -94.520668 4.824035 -19.444745 -26.875841 28.010683 -22.949977 57.375262 30.570671 37.410200 -84.096254 14468 14212 
-1.335006 16.160712 25.875108 91.267591 8.488008 -9.232453 -97.707073 -33.516887 -14.317884 10.545523 50.231739 -7.089285 46.464513 26.575951 23.723543 -136.134099 14469 14213 
2.489742 2.446465 1.792692 41.957321 30.144930 4.604645 -35.959843 -47.475952 -8.868875 42.444817 101.389872 -10.206528 8.965159 -4.570245 -12.114825 -117.039374 14470 14214 
3.316275 -16.343369 -16.272482 19.854433 27.309273 1.967625 38.163352 -57.995107 3.430003 18.853960 43.694586 -21.486609 -29.388487 -20.815180 -31.192113 36.903840 14471 14215 
-1.180545 -18.957204 -12.710996 40.569907 29.812988 -6.164370 51.019971 -82.389749 24.269332 -31.657497 -42.774982 -14.246372 -23.486010 -4.074180 -43.140235 135.109944 14472 14216 
-3.616121 -24.369402 -30.630357 6.604037 16.642910 -12.801400 62.751709 -14.581376 26.190503 -26.245884 -31.344733 -16.964742 -19.991125 -18.477816 -49.582164 136.415961 14473 14217 
6.582084 -29.501628 -60.000176 -48.231754 -7.131634 -7.421136 71.342981 74.361263 29.136807 -21.674773 -23.668074 -7.832612 -17.621805 -28.709877 -22.725200 93.095533 14474 14218 
14.649792 -0.110334 -26.314992 -24.232999 -16.748537 -15.703346 18.611931 49.848485 8.684413 -6.914752 -8.357656 27.134607 -9.380589 -20.907833 -3.482122 13.223931 14475 14219 
29.202741 22.592901 21.341146 -11.230936 -34.639372 -44.633250 -63.444876 80.811646 -3.576038 26.704081 30.867390 70.434196 -25.949381 -36.813429 -32.798976 -28.867842 14476 14220 
47.085908 14.695351 18.985668 -36.290507 -71.559886 -73.998781 -38.477847 139.560094 4.186565 50.781436 37.375893 101.650235 -34.659040 -44.371972 -73.458490 -41.504627 14477 14221 
38.307641 27.180571 33.230429 21.988504 -67.445268 -71.212706 3.262380 14.688449 42.617788 88.258034 4.814570 69.547427 -60.550610 -51.691295 -62.486633 -30.509281 14478 14222 
12.516540 50.061590 55.030497 74.234619 -46.199788 -61.236785 -10.573177 -73.833497 33.785085 80.307483 -15.254600 41.310981 -55.205793 -25.261249 -14.377935 -45.303972 14479 14223 
-9.941054 31.811001 27.935683 36.007384 -52.245294 -29.852133 16.999616 -20.715203 14.491285 -19.145311 -21.965665 35.532749 0.197605 34.006008 36.870317 -79.986987 14480 14224 
-53.576267 -38.030230 -28.564181 7.567029 -8.665505 58.992647 47.957583 14.318925 29.266557 -102.076212 23.906530 0.356348 3.939195 33.841567 38.900681 -28.134665 14481 14225 
-78.188485 -70.237232 -48.587592 -19.288779 59.809828 107.808093 23.960670 24.723497 1.961529 -111.182346 72.722374 -22.578322 -28.027438 -0.633286 19.477489 68.260001 14482 14226 
-53.102036 -47.411668 -23.493757 -75.543160 96.400089 80.149455 -8.778369 31.779445 -28.826853 -84.665514 30.879825 -32.924514 -23.723928 -0.897272 52.387923 87.770332 14483 14227 
-25.418566 -8.885122 -6.411954 -88.501380 66.795070 8.847452 43.019558 10.554942 -8.900841 -25.083198 2.111573 -41.526628 -28.205209 -11.128386 50.775657 61.957031 14484 14228 
-13.018078 4.031291 -11.106254 -75.081599 -0.528632 -30.796537 130.395521 -3.895712 24.081613 -4.421901 0.618043 -28.053262 -28.100133 -11.819075 8.562820 39.131894 14485 14229 
13.115895 -8.549160 -16.569520 -83.064264 10.380756 -3.962743 68.883618 19.765418 55.012072 7.912300 4.349083 -42.607074 -15.377901 2.146751 -28.815689 17.380459 14486 14230 
39.683073 15.471818 -9.189661 -88.518286 34.600212 41.377920 -84.339858 50.914782 44.180256 52.140928 31.010843 -34.533276 -12.269086 0.817901 -64.673832 -16.673734 14487 14231 
24.059238 42.032603 -7.423464 -72.552717 -3.054354 72.000809 -111.066339 56.004225 -5.354885 28.497629 -26.530097 -12.489608 38.703802 34.129880 -33.976428 -22.980292 14488 14232 
-3.565748 48.516896 -13.969462 -33.380905 -41.710423 49.482484 -17.129047 11.756206 -11.300742 -24.785874 -113.795457 -47.452272 69.191401 61.863290 40.833799 25.445855 14489 14233 
-26.953375 39.542339 -4.415266 77.519505 -37.903374 8.266981 -38.167926 -17.888884 19.710497 3.648979 -93.773749 -56.627683 0.048004 8.139493 39.721634 79.132824 14490 14234 
-20.850699 -17.713103 -3.853553 167.703023 -24.306424 -24.320232 -56.225909 -20.433104 24.590269 40.489176 -60.179159 -16.586350 -52.411158 -40.624282 7.408207 97.313296 14491 14235 
29.871010 -41.012961 5.128319 146.322532 -22.074479 -61.278807 -7.122138 -49.833476 3.147941 34.952191 -37.979069 19.641021 -40.667965 -28.497226 26.461223 22.941885 14492 14236 
39.001170 -0.638731 30.625979 110.653647 -19.353133 -62.074764 -22.083567 -76.130602 -10.695317 28.308922 3.823736 31.552829 -0.166960 2.646061 2.234333 -57.703606 14493 14237 
4.445093 -10.468529 21.239076 105.047478 -8.799522 -29.608294 -4.989666 -76.865635 -20.437528 12.277075 29.043360 35.991482 41.106419 21.921308 -46.996801 -72.905316 14494 14238 
7.347257 -23.093750 -2.995454 69.879873 2.546425 6.059130 -15.672438 -44.071043 -11.050543 49.777399 39.871882 17.594539 28.898474 -3.520088 -62.521820 -59.049842 14495 14239 
32.030386 -8.646096 -32.678605 -28.358765 3.649883 35.583003 -11.327813 9.748007 -38.073502 95.519582 35.111763 -38.192141 20.703033 -0.560442 -24.151408 -50.356883 14496 14240 
33.251863 1.771650 -31.826780 -50.963495 7.018856 21.857725 22.763523 -3.873341 -54.266547 -21.523837 -35.864400 -31.963054 43.826040 49.298681 67.506578 -17.013462 14497 14241 
6.437795 7.690704 -12.727989 -22.164877 9.621623 4.102336 32.628076 -25.587668 -8.325122 -97.414951 -92.275331 -25.624585 41.365363 56.144859 95.941939 30.187829 14498 14242 
-5.547531 9.299157 -7.090748 -43.878546 3.989189 8.244776 28.248979 6.734725 -22.818977 -47.431448 -43.805614 -27.842189 20.201305 27.873105 83.931042 9.892777 14499 14243 
-9.353352 20.171122 26.189631 -26.395471 9.576418 -0.637770 -22.771378 3.220800 -41.408377 -48.130216 -17.488517 8.551980 30.065923 26.884818 56.237154 -14.712766 14500 14244 
-26.143115 -14.027726 26.288056 -4.519286 28.122831 7.739600 -7.368612 -10.091748 -7.845403 -0.447471 12.584075 7.617225 16.451337 6.277048 -12.433047 -22.203764 14501 14245 
-24.105784 -27.760777 8.255383 -9.286079 16.288299 -0.400231 58.311098 -21.301910 2.167216 35.755849 52.396751 17.113361 -6.192831 -22.858613 -45.773149 -32.608584 14502 14246 
-28.743977 -8.372399 1.074430 -8.989044 -11.129689 -12.628534 75.951673 -7.162461 -19.031188 4.620627 21.364864 8.822160 30.536103 5.525294 -29.854890 -21.982969 14503 14247 
-40.347813 -9.875531 -8.998098 24.322673 -27.507116 -12.956652 52.113262 23.249275 -23.176233 -16.662291 -1.702685 2.211213 50.377018 14.719903 -3.577577 -22.189348 14504 14248 
-36.372165 16.971128 17.001678 87.055549 -28.400499 -46.761709 -7.320754 -2.173228 6.650475 -26.907531 6.747488 -1.396365 22.437607 -17.604451 17.788797 -7.716020 14505 14249 
-24.795634 30.815513 37.458514 74.336988 -10.990141 -49.965193 -11.735976 -45.124070 31.060028 -11.448659 19.084726 1.041621 -11.227807 -33.682461 -5.294001 10.466554 14506 14250 
-17.618875 7.163406 21.577653 4.080480 15.349217 -15.271651 44.569229 -59.849458 20.656138 7.707436 27.814384 45.285610 -23.794533 -33.760072 -43.201812 -0.707152 14507 14251 
-3.918831 -5.591544 -3.215746 -46.367332 32.657390 -3.930620 48.820567 -18.453884 -6.973191 13.424792 50.425582 98.194296 -44.819929 -54.903406 -58.725512 3.377369 14508 14252 
20.835333 4.727002 -1.317042 -49.705670 21.537708 -4.626950 -20.658582 29.208200 -20.700126 3.539435 73.766587 148.527719 -72.327717 -76.900001 -79.947549 24.041652 14509 14253 
34.680974 14.805830 21.068012 -37.640383 14.283128 1.651045 -82.228855 33.380249 -19.555359 -8.689279 34.617179 93.606736 -54.501624 -46.360047 -43.610761 44.493156 14510 14254 
38.087765 0.078271 23.854548 -93.230626 20.544652 17.492780 -55.751133 48.923744 -11.256821 5.874848 -8.301925 9.031601 -4.146666 5.962309 31.151462 -28.314807 14511 14255 
33.992626 -18.163994 -14.091304 -158.435507 17.772474 52.384321 5.833906 80.707478 14.463890 41.514025 -7.490616 -21.975336 34.086449 32.359455 39.857953 -132.815820 14512 14256 
48.455520 -0.632729 -27.332396 -138.463685 4.647595 44.106692 6.999212 62.219791 37.148620 48.696600 -16.450604 -44.516316 53.577204 43.796722 14.764829 -137.017056 14513 14257 
55.788818 25.092454 -2.150837 -78.719774 -8.002911 5.676294 -21.685705 24.001661 17.173277 25.483101 -38.219380 -72.450686 58.844379 55.122181 14.800313 -60.753185 14514 14258 
34.631663 19.276393 -9.956988 -32.009987 -16.418114 -5.624252 6.558192 3.543093 -0.699513 8.735054 -39.085686 -109.973943 34.312511 40.238165 8.060349 58.413064 14515 14259 
33.206790 7.245634 -32.810052 1.651753 -7.776219 -8.207689 37.578275 -30.888491 6.665565 8.071927 -33.541097 -78.595577 -15.381401 -3.258852 -12.665666 128.705100 14516 14260 
23.521026 1.028312 -33.012912 44.813921 8.138757 -1.879731 15.937089 -58.546462 13.553487 18.844875 -45.868968 -46.768812 -54.782694 -23.537926 -7.214974 145.775012 14517 14261 
-15.397529 -16.447002 -13.524895 88.973844 5.531470 4.375650 -1.706686 -51.804853 -1.349084 -23.745903 -30.797395 -23.019303 -47.512422 -6.386265 22.850567 109.959804 14518 14262 
-35.229760 -26.698292 0.114658 78.540656 11.164504 20.901339 -16.608660 -32.184445 -22.380911 -83.187845 -24.239566 8.630413 -30.256423 14.944305 52.622754 83.867274 14519 14263 
-32.458177 -2.060542 26.814052 61.488507 12.274459 10.020812 -54.771734 -21.307377 -16.604762 -28.735623 -17.463773 -14.424836 -30.862780 5.823177 41.707090 60.561506 14520 14264 
-48.551699 0.059858 38.851462 83.776596 -5.737139 -27.210287 -34.560816 -6.627975 3.878899 9.073269 19.690039 15.897195 -19.629695 -25.101443 -2.274294 -1.533970 14521 14265 
-103.231647 -28.754456 33.765199 126.384037 -0.840692 -29.627542 -0.396130 2.701232 1.932730 -19.333300 35.028856 62.272819 -5.512375 -26.603141 -10.881186 -36.904404 14522 14266 
-125.229874 -21.506116 32.987070 136.259085 -4.744782 -24.692788 -22.311448 29.238853 -22.290310 -29.763780 78.752214 87.999353 1.680847 -28.014018 -10.245330 -78.118976 14523 14267 
-60.401431 0.737538 13.676417 64.850571 -16.650722 -13.019884 -50.346542 61.154052 -5.090956 -37.537093 88.978344 83.479727 6.125636 -44.160102 -15.739406 -76.056149 14524 14268 
6.430518 14.949891 0.910412 2.355376 -0.631454 -0.674620 -39.396777 16.056654 23.674424 -27.771497 8.877216 -37.221564 3.701765 -7.209344 40.909992 -4.960992 14525 14269 
33.949585 12.955342 -6.866646 -5.765413 -3.201552 -9.501612 35.670286 -57.239990 27.582736 7.697338 -12.992564 -107.815121 -14.900566 17.607749 48.831597 33.988830 14526 14270 
52.663633 1.059389 -3.917621 9.690037 -12.467435 -9.251997 69.528642 -107.304648 20.176936 17.632071 -21.412484 -41.264349 -32.150091 13.728332 13.067770 30.221816 14527 14271 
34.444855 6.905466 -4.956126 20.470146 -1.749661 3.491393 37.056364 -95.662437 29.396732 13.929012 -65.843146 -34.663381 -58.013347 8.264314 23.427417 83.502398 14528 14272 
28.633491 9.794515 -31.021879 -41.125135 -22.198002 -7.300307 13.540227 49.677090 21.624612 16.624600 -50.477254 -40.588974 -68.154672 0.000530 15.721140 105.250018 14529 14273 
49.445333 -5.172621 -58.649567 -118.472205 -40.343943 -9.444192 26.415458 156.221737 -15.512981 -27.620431 -34.316920 23.699788 -21.602356 28.156558 7.775402 39.420939 14530 14274 
40.080835 -10.149763 -55.343214 -130.310992 -13.340499 14.893447 20.431295 133.738892 -9.729458 -17.692852 -5.915956 37.892422 10.636451 33.845413 -19.891630 -29.144390 14531 14275 
40.480183 -8.427753 -25.482539 -105.093637 -2.534463 16.698789 -1.227476 85.586897 -7.754299 20.932660 15.365320 7.276763 16.585372 28.850230 -35.461479 -45.794567 14532 14276 
31.981250 -1.235651 9.926886 -52.462323 -2.531228 9.195510 0.377408 4.748148 -6.491108 32.864054 4.891000 0.522626 30.173995 24.940080 -53.403259 -33.497387 14533 14277 
9.444932 0.986332 33.075669 -7.872589 12.146695 3.486143 -11.102081 -40.165101 -4.567155 45.131888 15.484817 42.999237 30.680369 8.598483 -76.721765 -61.605874 14534 14278 
-7.582966 -40.017129 18.100393 -36.403315 45.721261 24.707050 21.528299 -26.053593 -5.892275 12.636558 13.720109 37.677754 29.526462 9.171307 -25.613092 -71.226823 14535 14279 
1.698824 -41.309992 -0.816834 -85.019000 57.655092 41.588370 43.961496 -17.757958 7.750643 -12.733516 12.163378 1.178730 40.689996 13.578932 11.538513 -74.166676 14536 14280 
8.376788 -3.856278 13.293867 -18.031158 15.218130 22.708761 -5.744634 -31.965476 14.760769 7.802285 12.199588 -22.265111 35.865480 2.306182 -1.261584 -49.407609 14537 14281 
-6.299273 3.988585 18.121393 52.640326 -7.931058 7.188326 -35.921449 -31.786852 22.199234 5.058026 15.832713 -7.945681 31.848038 -9.375753 -45.528979 -12.087598 14538 14282 
-12.182164 -2.635762 -1.931609 42.181022 9.606760 -1.350337 -23.436913 -10.250997 1.712394 -17.844528 21.030246 19.294545 50.084604 2.028642 -57.118601 -19.187302 14539 14283 
-23.996745 -22.792993 -25.709023 22.939382 18.743923 7.456674 14.798446 8.560336 -14.334200 15.479587 26.002041 -49.976945 54.798162 -5.740917 -9.810333 -16.417395 14540 14284 
9.271597 14.663756 -31.594120 -35.773482 -19.845550 -8.256659 27.204703 44.329755 0.194169 32.745290 33.485927 -79.654600 25.034297 -23.177826 14.842083 -3.469340 14541 14285 
42.663247 62.459097 -6.987226 -41.711705 -49.727467 -32.184566 -13.687218 39.175838 -2.500885 19.617887 35.276577 -28.115658 -14.157124 -21.450983 10.215296 1.114890 14542 14286 
12.319439 34.248845 7.061867 29.301448 -23.280439 -5.239909 -41.999631 -12.411620 -23.857350 11.754159 30.769563 30.086759 -35.717075 -13.077154 11.920633 -11.879534 14543 14287 
-35.700641 -8.389969 -4.881461 57.080578 20.820843 42.630084 -25.649002 -45.910431 -17.323206 -5.436965 2.009492 47.578692 -20.154549 8.737524 27.408059 -42.819047 14544 14288 
-41.359394 -8.991372 -15.393240 61.214719 28.596089 34.796348 -26.560403 -32.302747 5.421304 -12.902495 -27.584499 48.002700 24.270633 29.695720 15.877531 -82.780895 14545 14289 
-36.863474 7.707078 -3.214360 104.389806 -16.496203 -28.062682 -20.407524 -7.052641 1.327330 -0.459374 -30.770285 60.586712 40.856321 19.117332 -2.825476 -87.832559 14546 14290 
-52.679311 -10.957976 19.760341 126.305906 -33.787399 -58.026097 21.994117 -12.609582 11.471823 16.201549 -58.409749 -17.779155 2.381187 -17.524973 32.790532 30.868786 14547 14291 
-36.847852 -21.836891 40.818114 74.834215 -12.330114 -49.953051 33.352220 -28.036640 30.889650 4.427799 -83.863057 -114.219977 -46.810459 -32.676949 61.700391 180.552601 14548 14292 
-17.441349 -15.869011 45.581896 21.644523 -8.376581 -29.464078 46.680413 -42.755812 14.651039 -19.222160 -62.701700 -110.345020 -58.104218 -29.769385 47.157117 218.334327 14549 14293 
-19.993612 -4.781652 28.891396 14.604342 -12.207772 -4.571673 38.674921 -40.615951 5.264445 -4.303713 -36.104809 -57.660100 -42.135182 -21.817331 14.172755 142.583936 14550 14294 
-20.595519 28.155124 15.899057 6.828243 -3.978585 8.827161 -23.170416 -11.965064 5.739061 33.465229 8.904513 17.165556 -39.405469 -4.572087 -27.405949 6.109146 14551 14295 
-16.616927 39.519228 14.129153 -39.253950 4.409758 9.579418 -44.130985 32.364306 -10.426760 10.862080 3.172195 79.201274 -37.083734 11.349757 -23.860963 -33.213847 14552 14296 
9.722584 25.462151 -1.291319 -105.631011 18.494024 11.431184 -20.719433 62.531820 -36.728144 -8.854639 -4.477058 101.710882 -20.664699 17.483990 -13.534347 -34.935985 14553 14297 
57.119311 43.213353 -8.276089 -115.226604 23.983955 1.203420 -48.825108 46.807764 -30.151797 8.202852 30.335349 88.744649 -19.071587 -6.398250 -18.584579 -53.076637 14554 14298 
69.972462 65.302801 10.622889 -60.232829 -5.033337 -13.300580 -64.030023 -3.301382 -3.817915 -21.897767 41.836548 56.459239 -14.556292 -27.127232 -5.834086 -25.062495 14555 14299 
33.010638 51.378301 31.973303 30.722724 -7.461136 0.980410 -15.882371 -124.721869 -7.075335 -49.417907 63.186675 32.895600 -7.474965 -32.285018 13.104954 -12.934004 14556 14300 
-4.753255 24.369545 34.590593 72.227417 21.220267 25.388949 21.143387 -194.186902 -22.916520 -44.847171 59.320696 -7.927190 10.919279 -7.536595 32.749116 -19.761616 14557 14301 
-31.055967 -15.158023 -15.023566 -8.623837 18.181550 41.082546 54.269950 -43.672653 -30.877411 -50.879282 66.063533 -34.059464 36.304368 16.089648 31.440755 -34.082148 14558 14302 
-69.025874 -28.811417 -41.856771 -30.048334 3.192701 26.976209 25.353372 114.220115 -16.378524 -37.288828 80.063626 -30.676931 62.734193 -3.219104 32.035985 -87.270417 14559 14303 
-104.287452 -9.244841 -6.394297 33.126381 14.908725 3.119768 -56.317555 125.089271 -5.734615 1.001005 24.057017 13.337756 104.705946 17.901518 -6.999828 -148.268800 14560 14304 
-54.094896 -7.581480 8.084907 16.783986 1.104512 -22.617541 -34.488469 92.808981 15.899625 41.138185 -20.295038 1.936611 107.368104 52.758699 -83.787681 -115.018506 14561 14305 
36.495998 -41.889494 -22.083309 -35.214029 -16.132651 -18.650442 52.617909 44.856019 24.068363 36.864175 -27.346280 -54.818152 90.370835 58.971478 -97.213874 -30.896545 14562 14306 
63.013872 -59.410097 -33.699640 -36.233569 -2.151471 32.474213 61.642156 -25.635464 0.418185 -32.142479 -41.712512 -14.154365 55.013942 41.643639 -78.169711 69.103301 14563 14307 
98.670021 -36.121833 -16.783867 -30.829539 -4.394375 20.762649 40.611370 -71.914426 7.558668 -42.993698 -39.613608 -8.213522 -1.307731 11.846653 -22.718924 95.442163 14564 14308 
93.618455 -17.973316 -10.292847 -19.524366 7.830378 -12.177779 35.949696 -77.430221 19.050465 -30.034579 -51.563511 -23.553839 -27.175467 14.014502 91.093727 8.168702 14565 14309 
66.403663 -12.925762 -19.724276 -10.796698 -5.785178 -27.864771 20.433362 -9.740340 52.840243 -43.244175 -64.296903 -22.572423 -50.703466 -9.047768 126.994079 10.030413 14566 14310 
55.689140 -24.248411 -42.842156 -32.189117 -34.163144 -55.508259 53.934819 79.327128 60.595882 -31.027913 -57.017802 -27.478142 -72.973159 -48.767201 82.993076 93.675260 14567 14311 
5.296198 -32.297875 -49.426421 -19.037678 -28.691010 -39.585195 62.104933 101.637048 -58.735905 17.779444 -26.996427 -1.390233 -75.999211 -43.011283 63.235541 125.118074 14568 14312 
-11.053730 -30.327681 -26.865191 41.037872 -9.649872 4.672385 -63.268739 95.454955 -144.828101 75.224160 -11.002186 -8.030227 -57.225159 -4.974748 65.087503 85.748758 14569 14313 
-15.519181 -14.017986 10.700292 75.025646 15.519520 30.625256 -163.245234 60.911685 -60.242436 70.527210 -10.423015 -17.619203 -28.364738 4.245140 51.014780 -9.137737 14570 14314 
-30.085560 11.751191 16.207992 44.611020 7.370012 36.667466 -100.244116 13.721994 21.370118 27.460209 17.086302 2.978112 12.633465 -2.710160 -17.364949 -61.453097 14571 14315 
-45.247003 35.303651 7.433325 1.874617 -6.249423 30.871969 -41.473061 17.485926 24.406163 12.187138 18.725782 10.157727 25.671207 -7.602987 -80.771914 -2.773117 14572 14316 
-40.954331 23.479656 11.984999 -5.675787 3.696043 28.745718 -59.410702 38.134403 19.200316 28.659245 5.945822 -12.314532 -19.990926 -32.897789 -85.293242 96.691106 14573 14317 
-38.633093 -13.761704 7.124771 5.083272 16.970745 36.502692 -35.311121 22.024437 22.628362 4.463248 -21.500754 -29.560731 -46.822127 -21.709021 -44.273826 136.774849 14574 14318 
-32.293987 -6.320906 5.754455 4.548909 8.525443 2.822962 14.868185 2.094938 40.959446 -27.153015 -41.963706 -31.595257 -43.145065 -0.603525 15.883168 87.617955 14575 14319 
18.081373 9.819195 16.600970 1.474704 -20.278392 -46.286527 30.804614 -10.215938 31.587380 -21.827504 -19.449619 -7.842486 -20.557406 6.276678 38.493993 -6.681036 14576 14320 
55.533753 32.645480 16.776021 -32.360384 -35.950325 -48.464596 16.434204 -4.614152 -6.553960 -0.078577 23.945997 14.876207 0.545055 7.128924 33.717729 -73.581374 14577 14321 
52.287373 48.051699 8.556546 -44.291458 -39.356554 -37.879152 23.285258 -10.653713 -54.551418 -3.055120 34.437237 29.419224 29.941936 24.977441 17.090652 -78.259952 14578 14322 
34.752086 33.861035 19.485945 -7.679678 -34.631266 -27.662833 38.099039 -56.224327 -1.250190 4.734857 26.164345 30.625418 27.965850 24.514577 -57.025008 -55.729850 14579 14323 
24.332089 15.656555 5.607380 -13.194601 -20.662398 -7.841962 64.788069 -68.685131 69.357762 58.374923 39.983643 10.742804 -38.720389 -23.866249 -109.048644 -6.823850 14580 14324 
16.751595 21.364918 -1.191240 -30.384564 -19.912704 -6.326954 74.698969 -55.000020 43.248271 46.121970 26.077770 -5.532141 -58.048351 -28.942335 -56.692352 33.767169 14581 14325 
12.458211 30.337429 1.328912 -33.450513 -30.646165 -18.124943 63.896230 -25.799161 3.344518 -17.128915 9.842156 2.581874 -4.442044 17.945912 5.431847 -17.575347 14582 14326 
-11.233427 12.426810 -3.355223 16.803446 -18.993131 0.377018 5.460748 -1.486240 -29.578517 -28.746946 19.663141 68.474800 33.343578 36.092792 1.053867 -100.302714 14583 14327 
-46.108599 -4.946848 4.877817 76.504928 6.787711 13.329729 -47.993516 -2.451222 1.480304 20.984010 13.315483 68.307770 8.895560 -7.913178 -38.684355 -66.385594 14584 14328 
-54.415563 -31.694645 6.336093 62.093061 47.748876 10.269245 -5.560447 -34.776620 15.460987 56.235854 12.356604 21.751887 -19.286740 -44.209516 -42.513022 0.203946 14585 14329 
-48.243816 -27.304281 19.582425 21.413128 95.351629 51.487348 -41.682315 -70.604118 -33.093975 -18.096210 3.259984 50.050339 19.430286 -9.171704 2.321318 -14.700038 14586 14330 
-37.502104 -11.238933 9.372391 -34.388666 71.374136 56.241759 -60.077026 6.218444 -52.872034 -86.567274 -3.656497 71.478414 84.943398 43.837126 0.780458 -57.943591 14587 14331 
-11.555061 -23.252403 -4.104036 -47.572045 58.323815 21.361125 -35.228956 42.027560 -9.271238 -30.649897 18.505334 32.414861 65.795737 23.165055 -14.069270 -85.890582 14588 14332 
-12.604964 -38.316023 0.756824 -25.538823 84.552277 19.267314 -1.810585 -26.306019 35.695062 -8.999333 -8.912465 -33.126137 45.069681 8.679546 12.792126 -51.198481 14589 14333 
-28.584714 -45.034033 -12.121032 -34.061979 57.034964 5.342722 85.378748 -27.954676 34.366891 -19.466723 -34.121699 -66.936539 42.097255 11.153096 18.214384 14.693336 14590 14334 
-28.005081 -26.628794 -18.384894 -11.497433 20.736450 -11.269088 90.842186 -15.793347 35.387450 -14.167335 -23.956150 -74.092099 7.553570 -8.655317 29.524670 48.405211 14591 14335 
-17.634437 -5.176872 -20.838080 7.832273 -11.708190 -25.995023 74.831574 -1.311245 30.429463 -6.552308 -3.214721 -55.625717 0.889884 -8.404229 21.253409 21.224220 14592 14336 
-2.761308 1.536806 -28.746906 -8.424491 -22.666274 -13.553395 63.511274 11.104294 12.072540 4.929796 27.632986 -8.305996 -8.741753 -15.732659 4.784316 -16.639230 14593 14337 
1.220014 9.022970 -19.259796 -12.339322 -1.757259 25.670353 4.044780 -6.601740 2.151785 10.644938 47.076878 31.047515 -13.757544 -26.440453 0.567454 -51.290572 14594 14338 
13.486883 21.331455 -10.446619 -21.830458 -14.590643 19.402310 -18.122588 10.769659 -1.899042 38.459373 56.408296 39.926515 -7.661537 -26.273191 -10.175983 -88.784430 14595 14339 
8.773209 9.241859 -13.980846 -34.801426 -33.062740 19.094510 11.629706 33.105729 5.569825 39.436636 33.099586 -6.563337 14.059216 -4.738549 -5.642840 -75.220537 14596 14340 
1.137996 -7.703804 -5.020831 -14.403247 -15.854439 27.239617 -32.770526 47.375233 10.307794 1.646154 12.877728 -26.399387 14.545390 -0.332232 2.794167 -15.439614 14597 14341 
14.001222 0.067434 19.939740 58.270137 -19.049925 -15.377590 -88.135833 30.284814 7.108470 -41.234730 -19.172854 -42.021460 -23.428037 -10.710417 30.894809 98.564219 14598 14342 
17.522967 6.338880 33.346630 107.585461 -35.435426 -44.249663 -60.935778 -24.173072 7.028257 -9.542531 -39.890463 -77.806997 -48.897757 -4.602590 30.420673 143.291407 14599 14343 
22.727027 2.527487 23.098534 77.150479 -31.138868 -32.466386 -11.151020 -50.747252 13.526581 36.752517 -39.908913 -74.486730 -57.839210 2.557539 12.835838 106.562378 14600 14344 
15.958452 10.103762 28.746002 41.981587 -16.181730 -9.526547 -11.064374 -60.017152 -0.527274 -1.430185 -64.504798 -27.136787 -39.304769 27.577020 31.808083 73.518709 14601 14345 
7.705868 19.121873 45.486131 21.378710 1.364417 -0.895949 -52.125931 -42.035121 -5.426154 -12.003793 -62.662698 12.711662 -25.028571 27.452355 26.101318 38.855880 14602 14346 
22.303427 21.370310 33.861226 -29.525742 3.974285 -20.445627 -22.573019 -8.964862 21.959079 51.302990 -33.326791 -45.186831 -45.220027 -7.572009 1.522564 56.521026 14603 14347 
14.049527 23.623551 22.338433 -45.176995 -5.618600 -33.363657 15.981681 8.166060 -2.660897 47.281544 -5.093341 -19.984581 -58.939804 -15.419858 -7.212440 62.029377 14604 14348 
-4.416349 10.486017 24.356001 -14.271968 -14.740597 -26.360853 0.735580 24.212170 -36.045301 -21.387495 -20.030239 95.181708 -27.756039 7.534185 -25.779948 28.283128 14605 14349 
-6.675171 -4.987953 8.879548 -14.021747 -14.644016 -12.962789 15.613495 28.798632 -40.555891 -29.342413 -24.151590 127.638809 5.980681 25.201208 -38.690803 -26.080001 14606 14350 
-11.140660 -11.741713 -8.723853 -16.074874 -6.109894 2.370554 37.949644 13.470797 -36.189444 16.474769 26.897415 118.019130 2.372007 12.186227 -50.200971 -89.559134 14607 14351 
-5.105506 -13.517614 -13.123584 -12.593433 -11.240973 13.883082 41.215746 0.482282 -18.893994 10.488233 64.146001 127.711245 9.345145 -6.665206 -60.843090 -125.288333 14608 14352 
-14.418471 -5.762714 -16.457956 -8.238450 -14.411109 25.461708 33.528639 0.298352 3.027958 -27.037985 79.214641 120.069487 18.375506 -25.807981 -60.591920 -107.249706 14609 14353 
-38.465820 13.764785 -18.228298 -21.548174 -20.115387 21.060915 52.454363 11.077616 -0.871309 -19.963008 69.932170 47.047995 20.320722 -28.981567 -41.201058 -46.283946 14610 14354 
-26.033505 18.982850 -30.297650 -37.492873 -36.567315 -0.801104 67.725257 44.484340 -36.073908 -11.881574 50.198249 -0.609873 22.810934 -15.509575 2.720734 -11.654987 14611 14355 
-29.540946 -9.071810 -36.861174 10.518754 -3.480672 13.408144 25.532266 29.495438 -38.113189 -1.602787 39.182107 -22.991207 25.692589 -15.048942 27.668593 -14.787163 14612 14356 
-36.851742 -11.314585 -20.673769 30.239157 22.749401 27.881482 5.656491 -17.686436 -18.260659 -4.175994 8.977642 -62.716853 46.889677 4.647020 43.783774 -19.144608 14613 14357 
33.223338 23.080272 8.093034 25.025386 -7.443680 -12.940429 -47.668365 -21.369556 -3.743182 4.047128 -1.422825 -85.531984 39.579192 13.528703 38.700354 -5.157386 14614 14358 
91.357945 24.469630 17.845972 29.856626 -31.052479 -41.050217 -89.697956 -1.729521 -2.366012 17.032673 1.692122 -78.774415 30.053679 16.171561 9.921518 6.268874 14615 14359 
97.581601 -17.108563 -12.861381 5.184682 -19.929230 -22.210045 -58.925474 28.268410 9.186830 8.352174 -28.581286 -72.008740 28.464285 28.404552 3.383634 22.798550 14616 14360 
79.804101 -31.238334 -24.678930 -34.467535 15.497744 -0.821671 -33.478264 29.382889 32.473336 21.627677 -41.335537 -58.334620 7.535344 14.445319 1.355630 22.232851 14617 14361 
28.567066 -17.984651 -23.044593 -81.226181 52.743377 26.049714 -8.640377 23.535645 28.702459 19.140047 -43.436484 -23.058666 -2.587972 -0.054148 7.656889 13.637875 14618 14362 
12.556363 -33.375129 -52.551011 -89.311089 64.524842 58.701180 14.446234 25.008610 -2.890678 -23.587059 -54.165936 -31.628741 16.097946 8.648536 36.030282 51.495649 14619 14363 
24.353512 -24.851240 -54.972222 -60.111568 32.971222 45.518929 21.422686 15.668682 -21.166180 -51.162633 -56.616989 -36.131684 25.317421 16.631708 50.956971 72.171386 14620 14364 
-10.854533 -8.243481 -25.574005 60.399964 13.351513 9.154041 -31.792126 -6.441374 -7.227705 -31.147339 -47.362797 21.029901 7.909444 10.605080 40.042846 6.150571 14621 14365 
-61.372721 -9.727686 12.823603 227.147825 12.160473 -33.479551 -89.015640 -58.536303 1.346034 -2.708030 15.489297 37.194498 -0.936309 0.757704 16.235406 -67.378600 14622 14366 
-74.034803 6.222638 69.289289 287.846849 -15.716267 -96.532453 -87.602834 -89.472419 9.775249 11.086938 34.711802 -6.009625 -5.110824 -8.313654 9.433523 -45.573409 14623 14367 
-50.096930 18.400866 76.158557 169.568231 -24.237399 -86.190873 -60.396120 -43.206333 14.535486 3.106503 -26.606318 -37.540271 -18.952279 -17.498540 24.632488 58.322931 14624 14368 
-25.343710 13.268494 34.014617 -10.742055 -13.986954 -16.798899 -12.757066 32.345573 5.633026 -13.511947 -22.336693 -52.306237 -46.206125 -39.863271 8.076071 160.515175 14625 14369 
-28.211824 -19.024351 1.202911 -76.646816 0.391293 25.613622 47.262207 49.412959 -5.357643 0.119573 4.254931 -53.323861 -51.138092 -40.235526 -6.873175 152.553793 14626 14370 
-22.558426 -15.316629 -6.829795 -76.498895 26.504083 43.672179 52.159179 -1.131695 -12.319789 18.640911 24.930339 -11.646822 -12.747230 -5.897448 -5.031154 4.071193 14627 14371 
3.924194 21.006864 6.852348 -54.111811 7.459101 17.785632 24.473317 -27.389646 12.532478 13.764615 38.106628 32.260862 27.282274 21.927281 -34.474290 -111.399848 14628 14372 
11.385704 21.083796 14.195368 -39.063069 -20.511041 -14.170486 35.507360 -8.427631 56.732027 20.134834 32.924631 37.779604 15.803133 10.352203 -79.164020 -94.562412 14629 14373 
10.636849 6.872508 14.344887 -43.018516 -14.686860 -12.997943 46.766586 -7.917511 53.194110 23.595173 37.338966 47.011461 -7.628128 -17.268186 -96.882217 -39.361179 14630 14374 
6.928414 -4.227238 3.439971 -62.588570 8.345585 10.274399 34.022719 3.804721 25.452524 19.811484 29.344562 26.716369 -15.849458 -18.868109 -70.078861 3.471489 14631 14375 
3.320875 9.443471 2.524019 -47.323600 14.152349 18.819469 2.987479 -3.924062 17.776835 13.278951 27.672270 -10.937955 -37.206230 -18.187399 -8.774533 16.378061 14632 14376 
6.897595 27.025834 12.652282 -4.407495 -13.912358 -8.346109 -1.547101 -18.362649 7.406059 -27.672180 -13.493972 -66.923031 -24.770531 12.857708 94.066895 18.529053 14633 14377 
-8.176582 16.147921 -2.423872 -16.916940 -23.852336 -17.749745 48.427593 4.543960 -38.888474 -55.582877 -64.881071 -118.968044 7.891541 62.990827 155.437444 52.000654 14634 14378 
-28.677255 3.826919 -18.563563 -36.491179 -12.428457 6.438991 73.182624 12.711920 -117.174302 -48.104034 -71.738270 -66.816112 21.693444 85.118310 142.841507 54.179457 14635 14379 
-29.244997 9.128175 -10.502323 -20.818457 5.779761 33.633923 -12.469795 24.493713 -92.429601 -47.821992 -72.459215 6.539155 3.636341 71.358773 115.322939 15.853600 14636 14380 
-11.831594 -7.230431 -13.142496 -20.812096 3.590109 36.626500 -27.173791 39.973799 -10.255606 -30.483651 -38.347241 49.558151 -28.541912 8.507719 46.708377 2.854163 14637 14381 
23.549567 -40.006729 -8.677444 -34.413278 16.475540 30.445532 3.196633 9.430180 -8.678781 14.781962 25.141458 77.177535 -6.876892 -20.570666 -36.699643 -44.274974 14638 14382 
50.402927 -27.333756 16.569805 -23.609845 31.839868 25.041780 -49.069117 -23.841662 -21.837444 37.759479 62.822720 97.802293 13.155067 -24.404434 -76.509740 -88.787942 14639 14383 
41.651097 -12.462398 -1.533497 -27.460657 -2.489937 13.129859 -12.900932 2.066464 -22.402880 12.137755 70.662760 95.774030 -4.478054 -49.142713 -49.965221 -52.585677 14640 14384 
24.123700 -1.125424 -17.773285 -30.796058 -13.183574 7.136965 0.093346 31.524330 2.671419 -27.168228 2.983022 78.980719 15.115591 -27.955027 -1.737535 -42.889961 14641 14385 
19.519311 19.709766 -12.779221 -63.127300 -2.470398 4.031341 -5.233845 40.350346 44.330050 1.226285 -58.479448 89.339006 58.358594 15.433504 -40.054917 -110.153075 14642 14386 
24.117739 21.416162 -18.778454 -114.916415 1.663309 2.930264 44.245126 39.322269 56.563887 56.399516 -10.050590 58.278446 53.675559 19.663610 -112.110972 -122.419456 14643 14387 
16.537850 25.770726 -15.687230 -98.158042 10.279755 8.764056 36.023434 16.469450 31.458117 32.684912 5.710277 12.949543 30.435209 20.981014 -109.260088 -24.958984 14644 14388 
10.038042 31.940656 -7.883843 -58.585583 7.830102 6.443798 9.833871 0.382958 -6.966881 -4.819440 -3.772711 -7.240206 38.197177 26.594080 -82.259285 40.267267 14645 14389 
-4.640249 24.687758 -3.739810 -18.152036 -10.638529 -15.439871 34.277488 -6.354751 -7.754868 43.056198 26.264849 -29.599505 14.197445 -18.309425 -61.357431 33.502736 14646 14390 
-39.428886 -5.231422 -2.630991 49.523076 -9.165593 -16.536900 66.269644 -42.798928 21.372461 57.791438 27.179066 -43.130327 -25.795387 -55.759227 -17.954885 36.296861 14647 14391 
-48.538058 -35.441706 -12.848316 74.550886 5.195514 3.207336 101.598101 -87.723758 63.204045 -33.330770 0.282375 -68.456131 -20.377425 -39.212327 43.164874 54.725359 14648 14392 
-35.161556 -25.505016 -5.581802 52.222119 18.907492 3.452229 114.550387 -122.883853 67.752059 -83.872116 -26.359936 -88.622895 -34.190172 -38.178217 72.262366 131.208911 14649 14393 
-12.735868 5.981166 39.030968 82.476122 21.709166 -19.057982 -14.806689 -102.596884 -21.112467 -68.181992 -18.439706 -77.609182 -48.018708 -18.626856 76.152615 175.836296 14650 14394 
-0.083871 15.470206 49.039275 112.629633 1.317506 -40.549438 -121.201070 -16.622241 -63.827489 -31.753439 -10.573170 -59.433326 -44.309937 12.144693 93.942260 103.810408 14651 14395 
4.238077 -7.187395 14.750878 80.520339 -3.877933 -48.557081 -96.951276 57.064391 -24.648698 13.175312 -5.343844 -0.397416 -53.888527 -3.060930 49.032549 25.131554 14652 14396 
24.008377 -19.716782 -16.127614 33.114610 -17.428070 -40.232476 -99.354727 135.736682 3.592412 32.413509 12.586910 63.871489 -36.338757 -10.991587 -38.652072 -26.481904 14653 14397 
34.210381 3.981958 -21.593677 -1.567609 -28.088140 -0.665545 -130.087276 143.809908 30.723396 43.981885 -2.046722 58.287441 -7.735824 -18.953051 -66.936170 -37.320955 14654 14398 
-2.111866 -6.710645 -12.836399 17.996204 6.182639 42.969729 -101.261944 55.772282 44.789125 49.281550 -24.767622 -2.647506 18.070454 -22.776795 -37.314328 -24.634877 14655 14399 
-60.296680 -32.957062 -23.885876 31.695305 33.486712 61.228894 -8.636793 -0.634500 33.808473 42.556603 -1.807215 -36.164524 38.525295 -9.063213 -45.331810 -22.523611 14656 14400 
-67.433859 -14.322905 -21.899697 21.681121 5.543253 25.517491 45.496446 5.418150 3.623438 15.170847 25.759137 -12.244007 45.374577 10.694583 -75.574682 -12.803892 14657 14401 
-20.048575 9.989504 5.232678 27.973291 -0.027437 -8.984469 -28.757839 14.622847 11.085643 -11.695531 22.717085 -1.938297 14.134823 9.510472 -41.018349 -2.795846 14658 14402 
14.403662 20.844685 18.099091 17.419730 -2.019436 -28.418089 -67.147009 26.817366 15.610647 -16.938185 15.460280 24.176107 -29.531769 3.509810 12.981464 -25.268352 14659 14403 
14.146609 0.369084 25.123058 34.358196 -31.397669 -39.253764 -39.841595 36.496081 -20.760321 -31.955488 -1.625940 28.935065 -21.086275 39.206162 58.952375 -51.665578 14660 14404 
17.229416 -8.184865 15.717211 24.694574 -26.570623 4.463417 -51.368834 24.019704 -40.218242 -18.097763 -18.801882 -59.517470 -13.491185 50.519166 107.118526 -7.511150 14661 14405 
15.002380 3.539165 -4.332153 -26.053839 0.190161 38.710020 -16.264123 -10.791610 -15.893966 60.708612 -16.525108 -124.342130 -55.124131 -4.321948 93.799669 61.699003 14662 14406 
5.033503 -6.045719 -10.200016 -68.265364 45.981754 44.914302 58.567866 -69.986326 2.656678 63.657676 14.654350 -59.615017 -52.412575 -34.949994 29.822925 36.185956 14663 14407 
8.364633 -3.539433 -14.066042 -72.105214 39.987803 22.025061 55.972351 -36.639159 -44.810098 -77.562951 31.182746 51.811258 47.533566 32.392683 32.302457 -72.849660 14664 14408 
12.302380 -1.253289 -10.689779 -37.632624 1.141159 11.620028 -1.550209 26.062333 -47.026126 -133.681305 26.551850 72.024600 105.095087 77.244599 37.734289 -137.942993 14665 14409 
20.283689 -12.118685 -12.727299 -50.712229 -14.473504 9.922160 -13.654388 73.480257 -1.862760 -55.627365 14.485860 35.315139 83.591932 50.780317 1.085556 -127.768679 14666 14410 
25.561550 -4.362486 -8.987461 -42.904633 -45.017665 -24.186627 8.499955 91.397366 15.783076 10.154363 9.188395 17.033951 28.122495 5.168854 -27.400107 -58.051026 14667 14411 
-15.540505 32.539182 25.051160 19.854041 -66.849517 -29.538152 -2.674879 37.158672 8.710944 28.144752 12.590356 -20.017605 -24.377033 -33.651393 -13.572444 42.172423 14668 14412 
-115.902484 52.890971 43.724886 68.460860 -45.891689 -22.757300 17.796596 1.678160 -10.909764 14.408846 1.115354 -40.274403 -33.203840 -31.561038 30.596269 69.828576 14669 14413 
-112.795616 32.627751 17.630191 49.615495 -5.096832 -20.522092 84.392452 -45.851350 -4.929527 8.216437 -9.884532 -21.509397 -42.107442 -19.327286 27.165831 62.375916 14670 14414 
6.214245 10.226029 -4.242490 -7.649532 7.084929 -18.559290 74.925907 -67.999798 1.336606 13.548666 -32.330090 -17.281893 -23.291306 1.658920 6.411984 49.947112 14671 14415 
81.331462 8.146474 7.541441 -12.585250 7.331509 -27.283517 24.375465 -88.857583 11.229209 20.288217 -37.457335 1.762848 1.964609 2.936944 -26.939054 26.214562 14672 14416 
133.803718 3.726211 30.967066 12.883600 -12.373733 -35.748486 24.906237 -158.164612 22.837110 21.044107 -19.136578 53.539836 -7.106329 -20.147356 -59.529109 8.498320 14673 14417 
111.865794 -19.796900 30.334806 25.884641 -19.270745 -19.980854 32.331319 -141.368060 39.559945 13.575158 -16.468768 65.873810 -14.811458 -28.748085 -55.433005 -3.547597 14674 14418 
64.350915 -33.805017 -10.550484 15.198483 2.316528 13.550134 -0.051944 -51.008615 50.406427 9.424834 -4.771689 40.951065 -15.794532 -29.028369 -45.350951 -5.836784 14675 14419 
54.499759 -31.605798 -39.788230 -2.552339 -11.048957 10.542933 31.327254 -11.374622 0.339181 33.814217 27.617234 15.598290 -14.684470 -20.669567 -36.415554 -5.599331 14676 14420 
1.469137 -13.544140 -18.928770 20.509727 3.414007 8.840957 24.660232 -26.421149 -15.301859 43.274966 15.724472 0.774139 -16.374195 -7.638885 -15.941522 -4.517117 14677 14421 
-12.282483 6.346527 -1.131490 9.773147 19.267035 17.586817 -17.316595 -22.242958 -35.658738 9.119569 2.929412 33.817899 -3.159080 17.170446 -1.039636 -23.179871 14678 14422 
-2.821284 7.749895 -7.891454 -45.789734 13.105449 11.817940 27.375172 -3.545984 -111.453109 2.920256 33.850597 67.054737 1.923325 32.231755 -0.340869 -26.186692 14679 14423 
-3.158739 10.725943 -12.177699 -58.633605 33.388832 6.135278 30.143773 -6.423784 -61.721603 4.151093 27.164639 40.311108 -5.415664 23.970297 -11.002169 -17.457702 14680 14424 
9.257655 16.344275 -9.483236 -58.545593 22.768076 -15.147435 15.161275 19.644984 13.450743 0.965728 28.066655 3.457123 -10.515692 -7.036230 -43.660116 15.271789 14681 14425 
2.694789 1.989019 -21.128861 -73.688953 4.508717 -8.064076 29.959311 63.730054 3.269978 -11.829285 24.121814 11.954074 -7.837351 -23.308095 -46.463312 50.092177 14682 14426 
-9.803222 -9.861538 -42.677412 -81.940116 7.533164 31.815151 39.419753 65.514220 8.568626 -35.291823 -39.714860 -19.817288 30.972176 17.827714 -1.074834 38.530289 14683 14427 
-15.110306 11.406242 -24.298340 -39.092513 -9.506617 29.877061 9.830266 36.894206 13.576961 -6.193004 -61.659536 -83.179616 60.097603 41.793912 30.040207 5.523472 14684 14428 
-20.634044 16.658011 -4.793162 10.936094 -23.917860 3.243444 -6.175399 24.682916 17.132829 20.364397 -29.078706 -85.832239 50.311184 22.756692 27.576386 -23.230542 14685 14429 
-59.492386 0.224470 -6.051688 30.442758 7.090559 11.610232 8.817509 7.358547 12.176356 10.086761 3.822659 -65.273982 30.496677 15.057772 21.908832 -28.275075 14686 14430 
-81.026731 -0.130429 12.046887 41.524751 33.974143 18.073510 -16.659063 -7.803069 1.833459 -7.593087 23.625617 -30.770048 17.712053 12.318025 12.593124 -29.719144 14687 14431 
-47.892829 5.321296 30.238414 51.638595 23.605441 -10.049713 -60.205385 7.344181 3.587102 -3.232341 28.237177 34.682489 13.091346 -5.067303 -17.862300 -53.436170 14688 14432 
-1.391284 8.293089 32.820989 57.453739 1.529652 -37.245048 -84.694358 23.233222 9.038799 0.110058 17.107002 52.236450 34.913648 -2.727965 -27.696716 -82.981277 14689 14433 
9.359176 -11.007547 12.480472 37.947953 -6.171841 -28.541977 -53.648802 39.582565 22.881871 -2.451199 8.508726 33.036048 42.076517 -3.055634 -6.049324 -94.947004 14690 14434 
-11.863140 -52.127331 5.038001 65.628493 18.213183 -1.430542 -27.987715 4.529051 18.094067 12.185423 26.620046 60.433284 5.935697 -38.516056 4.027922 -88.780384 14691 14435 
-6.939947 -56.280578 34.995296 119.760640 28.208228 3.644230 -40.484248 -82.903621 -3.150007 7.083881 38.545806 70.406979 -8.359015 -46.198890 12.312138 -70.640891 14692 14436 
-9.862880 -29.016707 24.187510 88.898487 25.842277 5.006787 -8.185382 -96.870093 -10.385157 5.692630 3.680723 14.726752 -5.597886 -29.686450 16.979639 4.589749 14693 14437 
-36.100891 -27.731471 -11.195993 20.460095 21.327987 5.174239 56.621130 -28.555097 0.149312 9.650382 -19.901032 -52.283502 -22.841224 -37.151698 18.388312 103.989452 14694 14438 
-46.768236 -11.875953 -7.196301 -15.991717 -1.203979 -23.036096 89.632991 16.439290 -1.798377 -30.953941 -23.193321 -20.345964 -31.439257 -32.915874 26.132387 114.514348 14695 14439 
-36.885214 28.702415 16.779896 -8.159166 -17.053414 -40.445556 19.709182 37.351858 -42.649102 -86.584930 -56.252826 47.857056 8.753601 18.007098 21.597564 89.271538 14696 14440 
-8.745834 53.592245 42.494678 24.964925 -24.103444 -30.899684 -87.791392 30.488505 -83.285275 -40.633558 -46.409185 3.956533 30.424655 48.316445 23.264024 64.366361 14697 14441 
3.590052 41.312991 23.527530 17.938778 -31.085465 -23.598287 -46.091757 14.406159 -10.400716 11.226739 -54.581911 -60.986695 -1.041482 31.037407 26.817266 57.929392 14698 14442 
-12.690343 -16.553325 -22.890864 -22.655628 -18.582078 14.438327 48.245610 30.688300 85.432470 -20.008543 -60.258517 -58.653705 -20.644100 15.697345 8.071230 50.363820 14699 14443 
-5.395417 -49.403892 -40.738883 -77.788652 14.519727 68.815236 47.791297 42.200583 83.595927 -13.549342 20.050651 -18.752637 -27.778468 -13.113061 -29.358823 -1.094247 14700 14444 
20.357230 -1.047998 -12.444940 -105.602683 20.834561 64.309869 -18.921097 32.515058 79.171122 23.260484 54.066988 -14.382592 -54.173365 -45.215658 -51.130076 8.403098 14701 14445 
30.967200 32.067011 9.110579 -108.156438 12.582148 35.198783 -50.108983 38.339699 51.955938 4.456943 26.271027 -42.981727 -72.650892 -39.865438 -11.042896 83.857045 14702 14446 
41.383002 26.023612 -18.274990 -144.153144 2.566309 25.627489 0.777578 66.050144 15.190392 -26.553529 12.619733 -24.595316 -53.844386 -25.490009 18.441726 84.231389 14703 14447 
30.764133 24.549891 -23.600539 -107.599996 -4.771851 17.961327 11.923767 50.773269 10.967979 10.832783 18.912085 -2.269077 -39.052598 -22.354269 4.688338 18.274758 14704 14448 
0.945808 -3.251785 -7.768629 7.965121 -9.665210 3.570216 -0.592060 8.796541 -3.261183 30.809251 25.955415 17.831409 -31.839848 -12.195482 -3.491083 -23.808479 14705 14449 
-1.375037 -0.768921 9.007246 79.027433 -27.721027 -19.633197 -19.579012 -18.957485 -25.499349 3.806621 30.147374 40.189196 -2.116874 8.046422 -12.153427 -42.419964 14706 14450 
5.299627 14.376574 8.970538 74.732318 -24.881578 -16.044700 -48.446177 -14.006603 -36.116454 -8.902375 16.748181 18.398713 16.242857 23.429427 -1.086694 -28.713656 14707 14451 
0.928417 -18.682077 -6.093637 66.194841 -2.626963 4.106238 -41.852326 -1.974492 -31.962228 3.197930 8.030403 10.528896 25.209406 21.898870 1.975090 -38.878366 14708 14452 
22.582874 -52.234322 -19.309628 74.892482 2.278996 4.592997 -19.066670 -13.736729 -30.221294 19.642623 11.214605 29.654362 40.989910 17.670299 -10.635074 -78.315431 14709 14453 
33.690005 -37.949568 -22.619428 71.994296 -17.970325 -8.904627 8.557100 -26.797454 -11.429585 21.674715 9.197411 32.499982 48.903531 8.456518 -15.192300 -94.110272 14710 14454 
11.898807 -15.019675 -12.363119 49.997571 -27.458973 -21.402898 49.329085 -34.980797 6.455260 36.885893 -7.054916 -21.508857 54.628458 2.231014 -10.360807 -61.276045 14711 14455 
-0.053587 -7.032307 -20.298154 7.063827 -8.614139 -4.605764 81.724455 -48.184331 -9.573568 15.765952 -20.939559 -44.718833 50.213600 20.647903 12.756196 -24.151691 14712 14456 
-18.780328 -5.932923 -19.870701 -2.309763 23.234779 15.144128 38.076561 -29.561753 -22.062744 -20.559631 -17.760908 4.506952 30.802682 28.505892 14.962704 -18.394948 14713 14457 
-20.413254 -0.014042 -23.641180 -27.469627 24.960629 2.158200 -5.104296 49.523570 6.410638 -6.357936 -22.083858 9.488423 10.230724 26.274322 -7.476760 -16.485552 14714 14458 
-2.053235 18.928718 -11.022235 -46.220744 -1.409162 -18.633511 5.470543 54.939625 40.437487 3.717430 -19.759928 6.705146 -8.067479 19.917503 -29.552543 -13.397616 14715 14459 
12.883582 22.796539 22.043175 -14.528255 0.456952 -25.061945 -9.701190 -8.888858 62.270974 10.243663 -1.788725 10.672226 -27.761067 -13.280693 -53.673184 13.316807 14716 14460 
27.184044 31.999711 30.623902 13.852298 31.550785 -12.274107 -64.303773 -58.632860 58.344125 14.575557 16.762563 6.472187 -37.278546 -29.885315 -38.356854 9.366283 14717 14461 
19.111758 35.802524 28.435211 20.948499 30.839814 4.634596 -41.967040 -97.805363 -16.463667 15.571607 11.215459 -14.241561 -22.958246 0.008856 23.521701 3.345852 14718 14462 
9.374096 39.437650 23.399031 19.036543 -5.596238 0.811911 5.745858 -92.208850 -99.574404 10.425832 -15.823582 -55.737869 16.502516 39.129839 72.228313 32.849355 14719 14463 
3.706051 36.782728 23.385294 35.134820 -28.256340 -17.725123 -14.822155 -38.205275 -73.823929 1.624977 -37.780118 -54.842382 20.876984 37.408390 85.054726 21.481352 14720 14464 
-28.689746 -9.851300 -0.777927 21.080177 -24.605066 -18.383375 25.542294 35.684944 -21.455286 5.254731 -32.199365 -35.048216 -8.560144 12.504734 72.377287 7.126260 14721 14465 
-45.821646 -33.397213 3.345670 15.772017 -4.107553 -23.544449 36.210882 51.542292 -29.544258 -33.590671 -39.608567 -33.942549 -12.794931 16.570306 84.897109 48.013559 14722 14466 
-23.539133 -21.370908 36.966136 0.749850 0.588336 -36.099015 6.043664 36.661069 -30.132239 -62.738687 -49.154671 -3.320585 -17.891463 16.421999 92.011536 54.804110 14723 14467 
-6.120610 -13.254130 39.144250 -33.017158 4.476647 -13.576736 -24.727334 47.075072 -18.107388 -19.904751 11.570169 43.325458 -18.159722 -10.923959 41.139929 -28.939735 14724 14468 
2.235859 3.430089 27.316896 -19.811377 -6.370153 -8.607171 -45.351082 47.156938 -15.439361 20.007695 58.129490 69.404028 8.060282 -12.706467 -4.092638 -123.363030 14725 14469 
14.232217 4.822857 0.608361 -30.649965 -30.843585 -14.982905 15.535354 41.277666 -16.922949 9.813730 35.881391 81.606880 33.444268 -0.300226 -23.439439 -120.083654 14726 14470 
31.833942 1.495897 -7.251894 -55.660300 -12.031352 10.140780 13.808354 17.664572 -16.082536 8.571799 31.844633 52.054379 55.771345 9.068139 -71.222124 -70.005636 14727 14471 
40.810060 7.677217 -6.566919 -62.063589 18.049329 38.172001 -28.011769 -8.066330 -35.667921 33.110214 59.987761 32.831693 79.304266 35.623678 -114.434296 -90.755395 14728 14472 
58.585559 4.062109 -25.384709 -97.485066 30.249498 48.190858 -72.194380 53.976130 -29.616501 32.215566 34.902249 -3.277805 57.793440 47.965729 -81.038958 -58.943721 14729 14473 
65.384882 -10.181699 -51.074239 -161.912532 43.333741 53.551863 -48.945628 109.843614 27.818293 6.368426 -30.662156 -67.306117 6.354981 16.087954 -65.373159 106.711778 14730 14474 
24.929146 -13.660627 -51.539095 -166.573871 40.315855 57.509449 42.183885 66.835256 60.419742 -20.747724 -58.680965 -85.348542 -65.381128 -57.099866 -49.029913 275.868394 14731 14475 
-12.341799 1.552703 -35.621369 -101.560147 16.935511 46.307167 68.497360 16.230573 67.655045 -36.132608 -63.680601 -101.761401 -125.265224 -86.482595 60.551004 285.116381 14732 14476 
-43.371128 12.843902 -17.077544 -2.231143 5.949968 32.278929 55.756207 -44.149191 61.961284 -19.073567 -34.992055 -66.150895 -128.961884 -70.329238 87.175632 170.370722 14733 14477 
-66.224442 -1.506844 -1.103461 90.216417 -6.790925 6.032026 73.383955 -94.006726 15.677184 12.681474 40.132173 56.519031 -106.904611 -58.681898 -5.749172 46.325818 14734 14478 
-63.232164 -16.638596 -4.987723 106.117661 -19.764079 -12.507852 98.063506 -87.050752 -3.942359 53.511492 110.811216 131.807532 -79.805080 -63.497137 -82.679008 -66.206656 14735 14479 
-42.840607 0.698899 -1.790188 80.924922 -23.229289 -20.021621 64.664252 -58.406368 20.732115 45.124487 91.676021 93.280738 -59.638567 -73.834400 -55.139067 -62.201327 14736 14480 
-13.632614 8.284274 0.157455 60.921703 -16.431415 -22.060456 29.651728 -46.890674 11.992197 -36.980646 -12.893362 11.589226 28.529642 -0.027658 11.552249 -13.761649 14737 14481 
-1.518327 15.751141 18.174324 59.288746 -4.336080 -19.391249 -29.410028 -38.558527 17.032603 -62.231724 -80.026025 -72.673058 97.256845 60.991993 10.201710 29.447657 14738 14482 
6.618319 28.539512 32.221226 46.814906 -12.429124 -16.368611 -72.764668 -12.631560 52.922151 -54.129964 -94.094531 -103.033857 89.982090 46.276038 -8.360865 70.438938 14739 14483 
11.949103 25.463824 15.698289 35.411032 -13.212171 -17.939419 -65.711782 8.341123 41.187915 -13.230067 -36.247665 -41.127942 72.762784 9.882051 -42.556342 9.329266 14740 14484 
6.690804 13.767237 17.869616 80.896914 -3.771183 -46.204016 -76.534852 7.285481 4.071671 9.677461 14.123104 3.115794 45.889791 0.639059 -24.031144 -53.485736 14741 14485 
10.798831 14.256480 47.355237 122.455112 -14.493573 -61.963992 -116.246723 -2.161372 -3.509886 -44.059690 -32.476218 -1.243289 49.629280 38.890554 26.640369 -33.871119 14742 14486 
21.842973 21.434211 61.707178 98.945434 -41.040328 -58.349765 -131.343922 26.804220 -10.498670 -39.355278 -61.629980 -20.589998 3.081550 43.458382 71.334729 14.199265 14743 14487 
13.806195 7.416993 47.326302 43.179025 -45.726001 -41.758846 -34.279616 10.035947 -22.630453 -1.465819 -55.948695 -31.797232 -59.085619 26.292892 100.795382 43.839544 14744 14488 
-0.539399 0.900025 22.964541 7.256823 -26.904339 -18.044359 47.964854 -33.598144 -29.256748 50.236781 -24.383396 -8.897013 -76.503289 -1.536642 46.574018 43.766289 14745 14489 
-1.650009 -24.550335 0.482215 20.372989 -3.486265 2.633754 45.881089 -39.683438 -31.152832 51.979898 7.590407 5.839276 -79.852532 -15.501145 34.351551 26.745376 14746 14490 
-3.353449 -40.124830 -5.030800 37.627090 26.081057 16.558376 33.711353 -65.468796 -33.261323 -44.192581 25.512821 37.754701 -26.397056 7.146965 57.766859 -24.330386 14747 14491 
2.081037 -18.934486 -13.721955 5.342987 28.616479 10.240247 31.966558 -45.590866 -21.630914 -48.100476 47.803188 87.744309 3.586095 0.283690 14.587506 -84.273398 14748 14492 
16.526614 -24.471403 -34.465524 -46.984647 22.093215 10.940245 47.128178 9.233323 5.460816 13.705716 53.700834 77.918837 -12.915866 -19.950229 -24.635940 -93.284168 14749 14493 
7.599359 -32.103245 -49.986026 -83.517009 34.069013 34.242124 32.682374 57.013411 -0.200402 -12.703887 50.901228 27.332288 23.067669 11.809613 -10.817876 -89.388633 14750 14494 
-34.762364 -7.331733 -45.221980 -88.976138 34.996128 49.060958 11.330596 80.904533 -27.818286 -29.816183 50.623015 7.990923 62.310653 54.582119 -7.245818 -110.626423 14751 14495 
-41.559990 23.714728 -27.473382 -85.038207 17.021150 31.580591 6.039684 75.715426 -37.646697 -1.795830 25.454041 11.295139 42.870229 51.296663 -12.820075 -78.653470 14752 14496 
-22.413097 11.164100 -31.904745 -97.948645 8.504277 30.180458 36.820116 65.597535 -29.917558 29.727733 16.767331 17.255443 27.208825 21.585149 -27.487173 -55.139751 14753 14497 
-6.057293 -42.163062 -46.173364 -98.994182 14.478506 53.944779 96.405191 28.559426 -24.104266 48.968860 33.699042 26.455327 36.178897 7.442769 -32.264402 -96.376226 14754 14498 
21.265202 -81.745515 -25.374916 -43.413228 19.982229 62.238494 62.657063 -15.609329 4.076853 83.756390 -4.081003 -18.431057 23.343162 2.011053 -13.362232 -77.313164 14755 14499 
15.015978 -52.330046 18.051733 41.368813 14.080576 35.857927 -55.285699 -16.759282 25.618879 78.557059 -8.184029 -21.565376 10.629690 6.948017 -19.383680 -72.620560 14756 14500 
1.453328 -5.537336 20.386377 38.073149 -22.985622 -11.059301 -42.039225 21.708629 13.375702 -42.871905 4.505138 33.414655 32.984124 35.314797 -2.766273 -73.956238 14757 14501 
17.957829 6.855367 3.433419 0.717977 -34.804627 -22.021555 25.364357 2.497233 30.780824 -39.492525 19.689471 25.845764 26.137453 13.286691 -21.945141 -54.302538 14758 14502 
22.211181 29.957159 7.971670 7.534108 -14.349446 -14.849586 0.805269 -39.280356 49.915366 24.680918 27.501815 9.170372 -11.995256 -27.156862 -41.218636 -30.897715 14759 14503 
8.250510 42.707203 15.234229 10.425186 -11.856584 -32.389229 5.795298 -38.166612 9.805635 -1.116560 12.235987 10.767910 -20.889913 -35.100195 -24.022450 48.319586 14760 14504 
7.544804 28.501807 14.090970 22.223663 6.907875 -34.441401 0.657063 -45.484781 -20.470521 2.989143 44.798314 25.255329 -33.061954 -61.491370 -52.658153 94.639213 14761 14505 
12.616030 19.472508 1.114565 25.515667 11.418227 -20.345400 -25.062138 -24.729460 -1.016860 10.222999 36.207631 20.038083 -32.514312 -64.852276 -60.286121 92.200856 14762 14506 
18.105305 25.840003 -2.704959 37.582780 -14.580917 -31.509425 -32.402992 -0.329795 11.945603 3.756492 -4.525087 -6.895653 -0.748184 -36.033111 -45.067400 77.567338 14763 14507 
5.881059 5.523094 -11.048740 35.081423 -9.399656 -22.269786 8.308043 -12.075437 36.206099 11.528647 -22.791200 -35.639463 7.713442 -30.823111 -39.882431 73.688018 14764 14508 
-15.553089 -21.335397 -19.808442 5.245906 7.313141 -0.159396 36.162455 8.134823 46.681428 26.516177 -15.924058 -75.408203 -5.124517 -34.413362 -6.644499 64.317036 14765 14509 
-4.302974 -10.888539 -4.692437 -0.618747 -3.518775 -11.756383 -26.297655 62.075509 -14.865496 13.818361 -6.510204 -58.180577 0.278710 -15.356000 30.031832 50.783375 14766 14510 
7.398185 -7.643438 -5.609415 -30.783232 -19.506765 -17.121153 -19.863140 93.128958 -59.689092 -15.367553 -60.575633 -38.296984 28.699769 23.823898 58.135087 63.270509 14767 14511 
18.107072 -3.348282 -19.031447 -70.098041 -26.980358 -18.514604 39.694667 80.170994 -10.332800 -26.127544 -143.686669 -86.855076 22.625777 32.729232 104.848503 106.798577 14768 14512 
27.353080 16.482463 -7.284661 -52.807249 -40.172241 -18.036886 40.082824 34.382670 24.104420 -3.719456 -133.177472 -100.814725 -5.602303 17.080409 101.207511 100.921616 14769 14513 
11.561626 42.398083 33.466159 9.596883 -44.260936 -10.362015 9.733497 -52.133297 7.514673 22.297905 -60.008382 -49.294358 -14.646441 13.638695 58.800972 21.696936 14770 14514 
-6.468464 30.017688 37.311639 30.152664 -25.649220 -4.618602 17.503023 -78.248727 -1.671438 17.746812 -11.694835 0.388676 -2.478321 16.210594 22.301885 -40.803373 14771 14515 
-25.927916 -20.252920 -2.806171 2.449489 17.134349 31.276940 9.587209 -11.460979 -11.677350 21.792837 24.471071 18.570854 24.957118 12.766404 -24.888490 -65.992442 14772 14516 
-34.778180 -13.687384 -1.102349 -11.913300 49.894957 42.651832 -47.099241 16.033666 -14.206720 22.678895 48.806386 28.994001 33.079381 -3.045663 -39.805991 -76.500289 14773 14517 
-42.718605 12.264592 14.717974 -10.797761 32.723789 21.672772 -15.305072 -12.557690 -25.224099 -10.055176 69.907186 50.273459 28.373492 -9.049344 -20.110725 -84.114793 14774 14518 
-39.534179 57.862664 40.252600 20.399733 13.610088 32.931903 -89.947509 -35.575300 -16.880345 -23.521849 80.313812 4.649343 10.845999 -11.999591 -0.096862 -43.310506 14775 14519 
-14.825065 90.241852 59.326047 48.984525 6.849386 25.072174 -178.036639 -37.612280 13.701827 37.379506 79.301803 -38.883039 -28.329978 -36.823680 -10.772864 -15.573575 14776 14520 
-17.143643 22.295240 3.765861 29.788753 0.056086 14.074528 -24.982360 -27.854464 26.081160 36.033642 37.193429 53.814903 -46.343588 -53.205128 -32.656458 -20.917960 14777 14521 
-28.347964 -47.525686 -37.744839 28.122027 17.226540 16.172120 45.873841 6.223961 21.001221 -60.493724 4.499380 138.383905 -16.621750 -24.378004 -29.823004 -32.568023 14778 14522 
-2.957208 -51.431470 -12.679950 48.614054 25.837281 -15.679228 15.357449 -7.060928 22.958664 -69.855935 20.745429 96.350809 -11.347389 -4.486038 -25.894611 -28.470929 14779 14523 
25.523030 -43.382137 -12.103483 16.691030 32.079130 -17.553690 26.877787 -28.131668 13.078812 -36.982827 4.261937 30.544434 -33.747731 7.190972 -12.544542 28.198945 14780 14524 
33.175160 -51.689605 -33.316472 -35.360937 38.307855 0.195165 55.815953 -7.127119 8.541708 -24.990755 -9.973277 27.237294 -21.997481 24.872310 -22.658578 18.968779 14781 14525 
25.227602 -39.253664 -25.926921 -30.843959 29.918897 0.479193 56.490489 -16.091635 8.802945 -14.164433 9.817697 40.294345 5.287905 22.800979 -35.806775 -37.032663 14782 14526 
5.906502 -25.393913 -17.240314 20.695262 25.045405 2.213667 9.929454 -21.156062 -60.948396 -10.921002 33.503981 8.446944 44.997829 41.971209 -6.996435 -50.054131 14783 14527 
9.463321 -19.907556 -13.822514 37.956121 1.439878 -0.068652 5.840171 -20.900769 -53.868507 -15.309222 16.988908 -39.332701 43.910369 50.245038 4.334941 -6.968825 14784 14528 
8.421391 -9.822739 -3.061601 30.467524 -17.122344 9.751223 4.507296 -23.140750 -25.738409 -30.473860 -27.698423 -84.155749 12.710805 37.783723 33.978250 83.593663 14785 14529 
-2.539641 0.719977 22.853788 60.097816 -11.165233 4.535731 -41.148569 -33.353870 -64.523880 -13.813147 -38.409035 -73.459950 16.473379 45.835458 46.899852 80.997322 14786 14530 
-4.690480 3.744258 25.895589 53.368294 -2.149271 -12.121487 -42.795195 -21.251708 -1.340589 28.698389 -40.337145 -38.856185 -3.353552 25.249880 9.172081 20.767122 14787 14531 
-6.428290 -0.820403 0.765315 -10.566987 7.150307 -6.011764 4.286256 11.625565 35.879928 43.763240 -27.124648 -5.905639 -36.912118 -26.002354 -4.605545 20.907137 14788 14532 
-24.575668 -2.347062 -6.788551 -32.863583 -1.130959 -3.052324 14.859852 55.898294 15.317755 37.329045 20.210292 34.902122 -48.782621 -57.966289 -12.866727 11.856424 14789 14533 
-79.382811 -9.846974 11.009334 13.967407 -3.964109 -6.547515 6.058345 68.706321 1.494700 16.885988 34.923649 71.065482 -34.301763 -55.019910 -7.303654 -27.744491 14790 14534 
-77.409433 3.806150 30.741608 37.180899 12.724601 -0.748234 -31.499051 25.203460 -18.848312 -27.875565 -40.372687 87.545619 22.344006 -3.625802 24.344426 -43.511685 14791 14535 
1.680059 14.930351 17.077116 -26.228045 -7.682570 -7.092016 -43.697549 51.012654 5.661857 3.515412 -72.317367 -9.127723 46.179416 22.541276 20.223477 -16.676347 14792 14536 
53.170221 16.399669 10.318015 -65.365543 -30.204234 -28.995198 15.875538 28.801532 3.946915 19.136453 -11.771032 -40.243490 31.342503 16.425214 -1.790629 -17.045933 14793 14537 
108.552444 43.266904 28.305389 -68.627742 -28.188572 -53.988346 19.712056 -49.032134 -0.047471 -11.605634 9.664416 -33.430263 26.273385 16.610443 7.609519 -15.074393 14794 14538 
142.484160 71.951784 24.014017 -107.839093 -39.619489 -69.465873 11.512320 -33.037825 3.133461 -26.882626 -2.648360 -54.598128 28.019921 13.611059 22.497288 16.867384 14795 14539 
98.166165 50.783097 -14.656769 -141.669511 -40.021160 -38.885071 93.076270 -6.793021 -4.531905 -77.526483 -43.861141 -7.709454 29.175116 28.093283 38.657749 37.702836 14796 14540 
53.963457 -5.820221 -61.018807 -166.164787 -20.375219 30.018944 143.197973 26.198659 30.654762 10.013136 -48.996442 -30.196383 -35.980581 -9.618720 32.324305 51.799923 14797 14541 
7.334531 -17.204312 -66.181071 -135.751054 -13.491868 76.156014 46.854857 102.282903 66.774720 110.738876 -24.933253 -62.074436 -89.002196 -46.461407 12.546575 32.411122 14798 14542 
-22.960313 8.816789 -24.604448 -12.040761 -3.819459 75.580612 -97.925864 76.953444 37.648990 17.179011 -16.510729 -34.108465 -37.821059 0.459566 25.623112 7.529573 14799 14543 
-52.802214 26.771373 29.207900 114.212912 8.729225 34.270537 -129.819045 -30.570689 -24.254510 -91.808886 -0.452001 -3.139329 40.248789 51.355011 43.937003 -15.886078 14800 14544 
-81.995434 30.115531 70.783113 176.547980 -4.089645 -6.781784 -97.332101 -87.247660 -21.818333 -34.981433 15.647406 -11.678213 60.320212 38.750727 26.746810 -72.987176 14801 14545 
-58.611269 12.579148 65.742917 177.011611 -24.015018 -32.380947 -45.371711 -94.954730 1.958002 73.134901 77.437987 -3.249299 20.679320 -15.628933 -26.149464 -128.182514 14802 14546 
-59.011450 -23.236528 17.964392 154.972703 -29.514534 -42.212608 21.496992 -40.458967 -1.189435 33.745870 96.050987 58.583934 10.697585 -28.586629 -77.649548 -91.652765 14803 14547 
-62.745068 -43.617000 -17.450176 118.987609 -8.864081 -16.011443 28.932615 0.767545 -2.187926 -34.676262 62.210742 63.364014 3.626439 -19.012919 -90.603182 17.279095 14804 14548 
-31.455310 -50.682261 -35.582043 56.672760 17.052205 11.493016 15.774690 16.726944 16.304470 -48.126911 28.288966 36.861937 -38.797330 -31.985863 -78.756643 116.211374 14805 14549 
-0.773374 -47.994472 -49.094454 -2.276860 43.992696 36.587351 -26.095680 45.654793 45.114676 -32.221653 -3.519124 24.705335 -59.979969 -31.737202 -91.881895 149.519832 14806 14550 
15.614044 -32.934918 -45.230031 -52.578283 56.752589 36.332843 -17.748283 39.792040 20.990574 10.580214 -7.158186 25.836147 -65.353073 -16.530119 -57.614528 89.248970 14807 14551 
14.377072 -27.053970 -35.068310 -101.133395 46.495537 19.411811 45.105229 37.866026 -7.006409 16.834608 -17.231806 -7.846703 -61.274359 0.020277 61.562101 14.942292 14808 14552 
14.331169 -12.731707 -5.786672 -87.591406 22.341120 4.874258 46.533897 18.029341 2.797789 14.066200 -39.040321 -25.193432 -19.180933 21.306810 85.292659 -40.048772 14809 14553 
28.094919 -2.845366 24.314173 -48.512791 -12.294187 -19.612344 51.274578 -20.418981 12.643227 48.316270 -38.974139 24.704883 -12.369036 11.834104 19.189783 -65.345092 14810 14554 
45.567199 10.950225 29.994023 -52.168153 -8.540397 -19.864842 33.340585 -39.278641 9.354800 55.419372 -11.113117 27.928924 -33.347364 -8.516042 8.449099 -48.175673 14811 14555 
39.785464 38.930224 28.822308 -56.467079 2.524903 -4.684999 -9.051766 -39.859056 -21.804137 17.374303 23.290707 7.477763 10.621577 -13.165670 5.297005 -29.091549 14812 14556 
10.375150 35.125545 11.967299 -37.165355 -10.214199 3.301404 -25.969431 12.579585 -37.374150 -10.395947 31.184658 -60.543044 55.796059 -11.791217 26.350392 6.773248 14813 14557 
-29.631055 12.486045 -1.799331 29.283453 -16.437170 -8.587685 -22.392576 37.078318 -26.110943 -22.729425 -5.374376 -79.176977 50.760647 1.568250 53.823693 27.239131 14814 14558 
-48.919451 5.859110 -3.217333 70.161251 -14.043862 -20.361002 -7.950706 18.471994 -14.573140 -41.862931 -34.632205 -1.220473 32.972407 -1.088219 18.720070 41.684490 14815 14559 
-27.305349 5.157653 0.788559 55.820481 -5.660128 -19.703861 -22.664017 13.566662 -2.677813 -49.838917 -39.576645 13.943761 23.749572 -3.836121 -12.625380 70.861543 14816 14560 
-13.762997 -10.073662 6.132539 61.006419 2.282758 -12.324444 -16.930643 -16.329970 12.287605 -16.638773 -35.959220 -7.412863 -22.993458 -14.550633 16.757438 68.509905 14817 14561 
-19.861639 -21.046991 -1.585280 50.427826 1.088538 -10.616300 45.784812 -44.190965 16.816037 7.652474 -22.932516 7.439596 -50.176419 -32.278747 49.231015 24.248561 14818 14562 
-6.128265 -8.026942 -21.830297 7.942043 -17.563358 -29.760784 85.594701 -10.227100 -14.999774 14.562665 -12.759197 29.115806 -14.549804 -14.486824 37.017491 -23.900362 14819 14563 
17.389961 8.298705 -20.795590 -28.505771 -38.930330 -35.684962 70.856411 27.371576 -69.654986 43.792097 9.714676 21.606339 27.744477 19.696520 -13.040328 -39.858795 14820 14564 
34.019685 19.212747 -9.465793 -81.723891 -32.477550 -16.981002 55.530348 31.885456 -67.209149 48.985443 20.639190 32.242513 48.676669 49.518502 -101.415156 -31.438012 14821 14565 
34.463994 18.296449 -17.001959 -124.019388 0.764171 16.686892 45.366113 25.443728 2.824266 29.727752 19.378930 24.107419 22.517719 51.937453 -118.541990 -31.951549 14822 14566 
10.552247 2.769834 -3.864660 -69.986190 33.085484 45.706863 -3.371700 -14.891879 34.502290 29.643392 38.678194 -20.769854 13.097828 32.056095 -68.324340 -58.883605 14823 14567 
-12.576202 -7.365232 10.845710 14.834226 44.828409 52.595090 -57.746911 -45.415091 9.374664 1.291672 21.180283 -58.507109 -10.064093 4.597089 18.221626 13.905869 14824 14568 
-7.357645 4.550748 4.540074 28.012961 29.094265 51.000580 -70.160736 -39.680246 -4.286598 -61.443113 -21.883155 -59.143523 -32.318770 -7.238814 91.161979 95.151994 14825 14569 
16.394748 33.974013 10.030533 15.884036 2.812938 22.011313 -78.021844 -23.085738 23.082670 -54.027022 -25.789710 -41.161425 -14.650572 -7.503524 74.220140 45.829443 14826 14570 
15.659234 27.160530 22.449101 53.929809 -15.731121 -25.223451 -103.773444 25.529343 37.422150 25.372088 -10.850221 -83.281015 -29.449297 -13.055471 62.782052 11.059715 14827 14571 
-5.157293 -18.339992 26.682350 86.572364 -19.617728 -36.169162 -87.932186 53.961647 42.440736 87.460081 20.256514 -111.992186 -34.960658 -15.377117 30.734671 -18.562039 14828 14572 
-16.537782 -32.048956 24.954971 74.024642 -11.978163 -25.929521 -39.124219 26.639028 34.688297 13.164821 19.692256 -33.429471 8.042548 9.284602 17.185553 -68.628607 14829 14573 
15.187316 -2.725784 10.670862 0.068750 -19.523312 -19.516163 -12.421921 28.260252 1.598300 -83.702397 -10.414193 42.555446 37.623938 34.698794 47.730993 -70.090881 14830 14574 
46.172815 5.804846 -10.200440 -78.626735 -32.165686 4.628881 21.944089 42.442230 -10.963511 -43.112247 4.323744 51.390371 8.866213 -7.475248 19.017673 -22.046995 14831 14575 
14.289282 -33.556403 -24.245484 -51.294294 -19.602694 32.919743 69.483118 12.006731 1.839922 -26.903176 -2.855368 45.082827 -13.895617 -39.394563 4.852635 31.273339 14832 14576 
-15.664617 -30.942463 -4.421724 18.116579 -16.203768 17.246113 68.096080 -36.226200 33.011942 -12.683079 -29.194860 25.788500 -19.456355 -38.676242 10.778350 30.431744 14833 14577 
-22.795605 16.577964 28.268468 63.844313 -16.155932 -3.970286 -21.934202 -43.834722 41.976723 28.813301 -17.151779 25.975971 -20.718708 -35.760352 -39.245344 16.110187 14834 14578 
-37.319947 -4.507542 3.660414 71.039588 11.916999 4.600916 -45.332203 -4.058225 14.950793 26.694065 8.040074 61.769744 -3.170863 -4.194150 -84.566268 -19.523395 14835 14579 
-62.700835 -48.816669 -21.540278 67.926053 32.134994 7.449883 18.792675 6.754176 -8.402905 26.547111 34.035070 70.173857 -0.437171 16.672307 -99.499686 -39.088583 14836 14580 
-47.464262 -28.827049 -9.328309 28.196562 37.056941 0.172032 10.874107 9.319978 -6.708367 45.430026 58.135213 39.147514 -21.736569 6.720995 -116.003051 -4.985761 14837 14581 
-1.001424 10.716423 6.821440 -17.989912 16.080577 -23.421171 9.540843 -0.746776 -26.530194 31.469050 46.894027 32.860717 -46.453524 5.244923 -83.163875 39.678878 14838 14582 
11.393243 19.188990 3.539937 -35.207706 -8.721089 -26.271917 54.574464 -18.495921 -51.404946 -9.437827 13.992476 47.190304 -35.940961 19.634988 -5.746279 21.712245 14839 14583 
20.470763 9.122218 -13.274922 -56.411097 7.512486 16.267871 17.297159 -0.984478 -23.984534 -5.084025 3.836109 30.317994 -4.945193 4.096894 62.656970 -66.894216 14840 14584 
27.887552 17.459239 -10.879661 -49.733030 17.053966 33.159488 -25.285234 -9.662320 -2.210530 -24.913039 -32.538060 -15.359703 38.159089 -7.963391 86.386084 -41.560451 14841 14585 
21.158138 16.605749 -27.512160 -64.445183 11.629444 13.629442 29.600872 -0.666302 -30.034226 -52.644993 -81.955468 -66.749298 45.415763 18.433612 105.019926 62.514684 14842 14586 
14.105692 2.966987 -43.142056 -86.991010 31.752208 20.139953 34.252999 26.915226 -10.786124 -35.265310 -85.918629 -97.338929 1.892945 13.748688 106.551517 107.115843 14843 14587 
2.014340 0.187286 -17.300732 -57.463137 44.719132 20.313964 3.340529 4.188617 5.105989 -27.455207 -56.321251 -59.114943 38.656304 18.423093 50.395270 30.310745 14844 14588 
-5.008045 -4.262510 10.631840 -22.889287 26.548186 -4.597093 19.840081 -20.263172 -18.654179 -44.817140 -33.961610 1.653596 101.277180 59.686427 -1.664278 -63.519996 14845 14589 
-8.388205 -4.852886 8.601374 -27.527734 0.588434 3.216700 55.343520 -26.981203 13.877473 -38.596487 -22.066870 -3.603537 96.898961 41.427268 -37.699803 -50.237004 14846 14590 
-9.385268 -4.513980 12.007982 -6.622169 -9.189564 20.185083 38.204144 -40.686229 11.356908 -15.772335 25.167730 4.023272 79.308806 9.597541 -54.423721 -59.258202 14847 14591 
-3.842040 0.068354 15.999022 24.866969 1.552657 18.629441 -10.819467 -46.454936 -3.820606 -5.596351 46.077879 20.708815 49.234407 -1.340937 -62.793831 -42.469375 14848 14592 
-3.164553 -0.889264 -5.940376 21.839739 19.655571 14.544456 2.824856 -48.870428 -5.052400 8.999637 14.444205 -13.154553 22.954585 -2.063565 -30.921681 4.793771 14849 14593 
11.751022 4.955612 -13.342953 17.538072 19.413874 -5.770971 6.705337 -41.249994 -23.464363 19.947434 -1.072915 -32.118260 19.974162 19.887130 -0.355354 -2.797835 14850 14594 
17.065310 20.532552 -3.488819 19.967772 -8.321248 -26.750430 -11.905367 -7.099771 -1.198609 34.712228 17.506402 -34.457461 -6.573175 5.536798 -3.322897 -12.203287 14851 14595 
0.580790 42.380278 22.377903 47.695311 -33.480798 -31.248507 -67.955339 19.650362 7.631057 33.782735 20.085389 5.826643 -25.027444 -4.273891 7.423336 -45.447826 14852 14596 
-8.379165 41.217302 23.835257 60.707481 -30.579605 -36.804319 -91.711456 41.714505 -21.299313 10.671472 -22.666703 85.628582 -24.907602 16.459706 18.461481 -62.347623 14853 14597 
-12.534281 1.952421 1.264210 24.221998 -6.226695 -18.378965 -38.845501 48.546813 -30.557944 11.235065 -0.744716 120.813483 -50.223948 -9.044516 7.033977 -48.511402 14854 14598 
-5.031362 -31.007067 -4.750813 -9.114242 8.565672 6.053585 5.061308 30.222919 -26.213435 14.914447 48.777826 103.085414 -49.372885 -43.880652 -10.792051 -36.518665 14855 14599 
14.361525 -67.141327 -1.163734 -16.746026 15.403183 -0.647802 47.199518 8.734663 -17.850358 6.017387 51.174380 25.934954 -20.785237 -37.762839 3.973177 -10.701465 14856 14600 
42.886961 -36.601313 28.916402 -11.291256 -10.562913 -33.069557 10.998886 8.722791 4.790770 15.016385 62.569828 -65.808846 -14.097436 -29.697508 4.392716 22.834091 14857 14601 
53.209211 30.524698 27.473372 -29.558654 -47.636507 -42.046393 -23.968211 32.002485 13.936055 14.357521 72.543920 -74.459204 -13.299904 -23.953093 -19.020716 29.895420 14858 14602 
35.334510 32.845161 -2.055968 -68.106398 -40.457985 -8.940606 20.350139 31.031147 23.047819 23.013572 51.707760 -32.696383 -19.102953 -29.080970 -49.268657 32.379812 14859 14603 
12.940014 18.416123 -8.713700 -54.885717 -17.996413 7.552441 65.864304 -23.177051 33.380115 40.203252 10.330293 -5.116510 -38.148833 -30.576417 -59.795255 49.723354 14860 14604 
-13.219360 -2.363230 -22.761253 -5.355853 18.812220 32.162175 64.659185 -71.933883 6.689183 14.800096 2.223790 15.219729 -31.707167 -6.813469 -26.052791 25.640630 14861 14605 
-35.370664 -27.918931 -36.830975 27.325041 22.960260 51.224958 9.012422 -10.402111 -11.484616 -5.152822 0.561698 40.214765 -4.394746 7.357392 -13.288855 -13.812816 14862 14606 
-30.609724 -35.668376 -36.136698 25.442646 0.157331 40.217955 8.614409 27.982457 16.308118 2.693393 -9.803504 54.388786 -0.047598 -6.964844 -24.640860 -31.933491 14863 14607 
-6.584828 -13.580954 -4.355932 11.687902 35.196186 53.947760 -33.400099 -42.910033 33.046309 20.370694 -1.181510 40.918697 -10.392076 -31.365589 -12.380334 -39.016190 14864 14608 
7.877626 21.784586 41.648498 10.128525 62.884245 42.889750 -129.125225 -58.088005 58.042595 40.967396 5.385060 15.312931 -9.604955 -19.986314 -22.470240 -67.646473 14865 14609 
-4.357105 18.902541 36.043883 -41.865293 18.990159 -2.160076 -56.490074 30.935964 106.903326 66.857908 12.118902 -46.696603 -30.538113 -15.968737 -46.561054 -46.115628 14866 14610 
-16.049123 4.376812 2.082372 -103.460039 -20.755418 -14.413114 52.013031 96.205478 116.964295 33.522842 -12.984019 -70.307598 -61.936133 -41.553184 -52.592543 88.886341 14867 14611 
-32.280227 23.890981 -2.530419 -58.701826 -26.258102 -23.302561 28.941776 90.240377 62.639451 -108.272034 -83.800211 11.082725 -32.998115 -9.531479 -42.482806 203.362468 14868 14612 
-56.564416 25.434525 2.066546 39.765965 -17.288256 -42.657186 9.318885 39.923937 -15.834757 -129.921693 -103.580172 18.242084 -14.042733 25.909596 18.148977 201.078698 14869 14613 
-44.800830 -10.034556 2.335848 132.445543 13.271761 -49.702796 11.046077 -54.561046 -127.314829 -15.764352 -24.185179 -10.397553 -33.528921 9.227484 83.767755 118.195594 14870 14614 
-38.757993 -42.748714 -14.205606 158.229835 8.069617 -50.377033 51.888008 -72.098113 -201.592130 41.976039 45.096112 12.902063 -25.629973 6.331556 112.314496 8.601837 14871 14615 
-30.212790 -54.145415 -33.384635 115.919737 -35.285868 -42.086401 122.864917 -43.669546 -102.195317 29.117029 12.803097 -6.824576 -3.455939 24.284595 102.193282 -55.922171 14872 14616 
18.500974 -39.091969 -20.864398 90.583034 -56.594336 -11.105790 24.995838 -6.423353 -14.329251 8.239013 -17.119744 -78.533980 25.228019 42.109200 75.839723 -41.432979 14873 14617 
32.581830 -11.567882 17.718639 74.946975 -30.928239 33.629614 -150.959046 34.578109 3.375650 4.984759 -31.574177 -108.654826 46.821388 56.621716 78.862287 -50.436797 14874 14618 
34.424202 19.514895 39.673594 34.478112 -8.836487 33.251053 -195.322253 42.816885 1.550770 -63.148590 -89.177585 -43.829527 73.029989 85.390628 106.988656 -70.804342 14875 14619 
65.913311 35.216180 19.920381 -6.596033 -25.666150 3.764871 -130.593919 38.041359 -27.969787 -82.837563 -42.451928 1.998231 69.177737 60.307303 83.334835 -61.558829 14876 14620 
57.702731 54.701007 21.026572 21.894751 -29.598826 -14.542914 -106.375139 -4.808182 -35.186932 -57.352451 36.505442 24.401148 58.717355 -2.043110 3.708338 -28.749791 14877 14621 
35.529460 55.850995 21.754686 38.453715 -6.958965 -26.292419 -84.475637 -33.861836 -30.880385 -33.125635 79.604909 22.573450 74.926586 -20.889587 -59.030955 -33.178383 14878 14622 
20.924552 15.962053 0.527284 -8.256065 15.084293 -19.119252 11.849452 -36.972317 13.498764 29.097645 144.998378 67.502047 35.092029 -60.887485 -113.677801 -115.623577 14879 14623 
13.582090 2.633913 -12.475829 -68.749676 9.406614 -2.728560 61.282238 -2.950789 50.684973 44.070978 89.886779 91.861042 -9.158720 -69.592288 -111.414570 -86.338195 14880 14624 
15.346916 -8.707506 -36.453212 -131.590419 6.823281 21.904488 83.191064 49.485387 46.598928 9.319070 -10.360061 21.161648 -24.561570 -38.642203 -59.212576 55.696764 14881 14625 
2.303891 -7.721642 -29.011920 -123.663892 19.083904 35.611272 54.423528 48.974859 19.634485 -62.446459 -60.071234 -1.823315 -10.077106 -16.228688 -31.662924 162.675241 14882 14626 
0.922714 13.355030 3.300284 -61.325233 5.412342 -1.552756 25.541532 14.346086 24.763469 -54.727035 -81.473699 -42.962485 7.059980 12.998143 -18.760823 153.102450 14883 14627 
6.259507 7.298773 10.347597 -35.182377 -6.299198 -50.100661 65.545652 2.130707 48.149244 31.631361 -37.484558 -55.111387 -19.616291 -1.443933 -24.260303 58.135867 14884 14628 
-9.311910 -5.214742 9.437475 -28.699479 14.412859 -46.987352 114.245206 -47.882058 27.242664 60.325500 -6.797049 -2.526012 -19.239744 -11.399259 -17.889616 -29.716483 14885 14629 
-45.768878 -8.152137 12.619194 16.394837 11.057965 -27.478675 152.401923 -111.074230 -14.686519 14.027447 0.519067 51.809191 -6.767011 1.820747 16.789289 -63.512210 14886 14630 
-77.120439 -30.791683 -16.083719 43.122488 -13.129702 16.278720 152.163822 -74.439487 -41.505809 -45.793312 -3.874438 52.581678 12.413991 25.444154 40.677388 -39.943651 14887 14631 
-58.662524 -39.750504 -29.628400 24.107911 -9.164294 51.574336 72.075867 -10.552391 -34.528737 -22.333445 -1.185793 35.753513 23.999758 28.414294 5.609759 -35.729350 14888 14632 
9.570229 -3.002420 1.117821 -1.182224 23.573801 34.683188 -91.591487 26.831092 -8.881362 34.612521 27.214819 43.693534 0.564140 -16.666600 -55.065430 -25.471621 14889 14633 
39.277106 -2.468337 -5.100699 -25.990060 40.365856 51.034885 -152.448789 55.330037 43.666640 39.665865 19.169662 -3.489712 -11.190334 -35.967737 -49.378199 -2.476185 14890 14634 
13.073486 -6.383076 -8.254780 -15.473599 25.664146 56.811077 -123.439248 58.001993 64.259175 14.976717 -2.962020 -30.592689 -9.475656 -21.449992 1.409419 -16.164954 14891 14635 
-15.411821 12.978121 10.541302 -6.758770 11.851923 18.723001 -74.976143 43.052386 19.901413 8.365148 3.312891 -12.530256 -10.593260 4.976774 25.042679 -38.475389 14892 14636 
-3.605800 14.253269 2.902463 -18.606979 6.878979 -6.813613 -26.711288 31.702968 5.020194 19.755206 1.603589 -19.641495 -31.333230 6.691828 43.517790 -25.613883 14893 14637 
26.550223 -16.413554 -26.729640 -54.116818 26.151288 -5.395009 25.859962 24.093548 6.658172 29.026360 -32.063133 -61.633167 -31.409818 11.766306 69.630124 8.025156 14894 14638 
19.377672 -35.555419 -38.257872 -94.992370 28.739459 5.438999 96.445446 18.804086 -4.309218 45.293552 -33.054596 -88.983650 -27.885824 22.788535 67.906432 18.244770 14895 14639 
7.382657 -9.177610 -30.091077 -104.977617 6.868716 21.255354 79.999315 28.740262 -0.320691 21.809761 -17.969373 -54.008742 -25.475463 17.320507 57.271867 1.372135 14896 14640 
5.635346 10.127287 -22.900690 -105.950660 -29.092866 36.404035 61.271877 44.505672 0.926324 9.718689 -13.397758 -16.831364 -3.026126 20.005797 23.779948 -21.175509 14897 14641 
3.512157 35.384059 6.784586 -47.910590 -55.562270 24.742356 13.595755 19.453946 10.847832 21.681658 -14.758451 1.450732 8.570568 19.085227 -19.067387 -27.810180 14898 14642 
7.526265 63.460394 34.443941 26.223947 -21.931068 21.431898 -103.780574 -27.374802 24.420780 16.309301 -28.685689 6.413810 17.783411 23.951642 -31.322004 -28.871251 14899 14643 
-1.407422 45.406058 31.116037 66.629416 -17.606274 -11.377123 -95.256025 -17.504667 27.306261 25.379955 -18.530081 -7.342552 3.800892 17.408496 -30.094805 -17.928166 14900 14644 
-37.925172 6.881475 27.378163 158.181031 -51.362545 -58.493397 -32.888501 -11.771054 14.660284 34.079578 4.127598 -13.212988 -16.359019 6.584602 -20.294143 -9.585913 14901 14645 
-104.350304 3.282522 42.652085 218.982524 -31.669145 -48.068025 -30.235123 -50.594533 -4.503877 39.202507 26.888937 -19.405521 -26.621588 -10.436524 -20.225736 15.101802 14902 14646 
-127.224422 -10.076380 44.361110 162.768541 18.511156 -27.371705 6.698217 -67.666517 -21.856952 -14.172986 46.830870 2.230323 1.078136 0.461926 -31.260827 16.689511 14903 14647 
-52.891837 -44.346054 34.409850 70.236272 13.086508 -28.367705 33.241937 -25.368971 -35.293759 -53.161882 62.518203 39.697266 58.059910 40.948720 -54.105003 -58.663456 14904 14648 
23.975729 -38.902714 20.627425 0.349024 -22.773384 -49.264983 35.005521 30.983381 -7.821540 -28.203034 56.064894 58.096689 64.851200 24.991064 -86.785694 -81.193579 14905 14649 
92.912740 -23.213627 6.620131 -35.496275 -7.865947 -51.092521 22.372154 -4.236656 33.622585 -30.500134 18.473119 65.326599 47.296031 -11.311469 -95.288206 -27.618526 14906 14650 
121.101555 -26.175431 13.512792 -66.117348 36.189649 -12.560947 -18.494204 -47.456066 -31.945832 -39.076808 -2.705777 48.642908 37.202697 -22.090075 -22.180590 32.153478 14907 14651 
97.127689 -32.562182 2.214209 -82.421645 61.937038 32.050300 -23.652760 -54.692648 -105.360374 -9.736267 8.238596 14.580313 25.358756 -17.588382 86.290242 -1.782882 14908 14652 
63.084046 -28.888454 -15.987751 -57.880875 49.059066 43.617873 18.990661 -71.994566 -17.028505 56.447291 12.658166 -37.368516 -18.357805 -42.619020 76.046097 -29.777708 14909 14653 
-22.184537 -12.905948 -4.490125 -2.103764 23.700203 28.979128 38.076157 -49.071113 74.983459 76.419200 -8.565213 -87.156856 -75.893310 -77.503024 16.973084 80.742660 14910 14654 
-41.280801 8.283864 -9.014924 45.683364 -3.343706 5.883990 -2.144938 -4.066849 50.948255 -38.692237 -41.002104 -35.198210 -43.476613 -38.201959 1.644245 143.978623 14911 14655 
-7.986956 30.827086 1.719848 89.454605 -19.725363 -31.561994 -51.157358 -11.569868 -15.690231 -113.905275 -62.974234 9.236173 5.228842 17.270848 16.467761 144.366117 14912 14656 
-21.173697 24.161717 11.071907 80.205361 -10.743727 -36.807602 -24.148519 -22.565439 -33.475135 -49.880119 -27.717123 -7.222489 -19.389542 4.757960 45.777949 87.148499 14913 14657 
-21.274871 9.513298 -23.569514 -8.081415 -3.750438 -10.563663 52.072874 5.653728 -21.960245 -24.722269 7.968852 -10.792629 -13.128790 0.855626 64.742910 -2.963456 14914 14658 
4.597149 18.098853 -39.907219 -54.786475 -5.482982 5.274616 62.194049 10.012010 -17.130747 -4.803705 9.625649 -26.817727 -9.401827 7.957757 61.324496 -20.753896 14915 14659 
21.620499 17.728098 -36.890105 -61.525907 -5.836560 7.772318 26.779934 30.351723 -17.219305 13.302216 1.734219 15.251809 -24.101927 2.088246 36.231816 -27.287074 14916 14660 
20.460510 21.246192 -6.113919 -40.844725 -3.924089 -6.072140 -21.195781 36.443953 -15.479605 -17.594441 -37.003525 25.279336 -34.421672 6.997143 48.062274 24.160490 14917 14661 
9.871686 17.485929 20.269019 -14.237585 -8.562456 -9.463016 -30.086858 14.723282 4.932679 -40.746667 -79.011068 -2.345251 -41.965171 7.784569 55.258991 96.091918 14918 14662 
-14.938872 -12.313304 5.577291 8.744810 0.918323 1.065842 -11.805306 22.751215 5.774819 -39.806951 -110.001250 -33.261102 -4.794941 20.153300 45.806733 116.129392 14919 14663 
-16.034603 -19.912037 3.954335 27.885284 9.498103 1.628495 -24.125293 17.105716 -0.865666 -31.805775 -79.899349 -54.758405 -4.413697 11.113621 30.573762 130.055509 14920 14664 
-0.660662 -6.529857 2.846823 -23.040843 -5.632534 10.512744 1.755735 20.748593 -11.028516 -37.890475 -23.185578 -25.966744 -3.429654 28.032681 21.553907 51.914379 14921 14665 
21.475017 -5.381381 -14.319043 -99.757087 -4.039367 35.112973 39.011854 27.897034 5.442759 -14.874177 -0.093310 -10.009709 21.021441 45.796544 19.206806 -66.490354 14922 14666 
31.803477 -2.740338 -31.812973 -140.943498 10.158547 48.134540 46.797618 38.602627 26.276604 16.918413 24.500651 23.533944 -0.311390 18.228009 -20.859706 -88.286525 14923 14667 
-1.947341 6.171233 -50.544801 -79.638122 -0.882521 29.747494 36.156643 60.937415 30.411446 30.206293 36.124765 36.811194 -52.163118 -16.746084 -44.381300 -20.263195 14924 14668 
-42.877344 3.712544 -31.720872 94.624684 -21.707658 -14.782369 -15.713730 28.464744 47.085013 27.345615 42.938182 27.721747 -85.680085 -57.286871 -64.124870 62.001269 14925 14669 
-64.787849 -4.477042 9.889158 198.125274 -10.759640 -40.217613 -59.955151 -27.817137 32.128662 20.648256 37.345763 36.405692 -63.803354 -45.752743 -53.938217 36.965941 14926 14670 
-37.526279 6.401485 27.067646 118.280439 11.627171 -32.423634 -51.564316 -41.862513 38.402497 37.704539 26.363338 18.839727 -35.332634 -26.207848 -14.863080 -44.906540 14927 14671 
2.987088 25.992077 31.915788 38.577700 -0.967893 -27.021698 -23.019500 -48.463563 46.102820 66.132805 57.635956 -25.420097 -20.536011 -33.208933 -1.833149 -88.873391 14928 14672 
16.707733 21.634568 20.251949 17.357443 -26.859317 -15.797612 -4.593548 -28.701214 -87.419022 61.510261 116.249197 28.874693 29.063088 -10.571673 6.271823 -143.978366 14929 14673 
30.210032 -21.155588 -18.978765 -59.016823 -19.617379 19.493787 16.176183 52.888554 -137.681191 31.562750 97.041891 88.153283 78.433047 26.970356 -14.618604 -169.861533 14930 14674 
41.375611 -33.307928 -16.148093 -95.858525 0.535026 38.119962 6.617138 58.666809 13.056449 22.780394 4.378979 15.740880 80.214267 43.333807 -50.078262 -129.426514 14931 14675 
19.088626 -8.177511 5.564136 -59.586018 19.631465 40.110580 -17.801187 1.169908 40.259302 34.597250 0.251291 2.447658 70.000896 25.966185 -79.894437 -93.628144 14932 14676 
-14.318368 -8.053752 -17.004470 -40.272191 37.016908 51.728440 17.153719 -26.250287 -10.956858 25.124866 20.249375 55.584981 64.625348 12.244773 -99.386752 -67.485732 14933 14677 
-30.409498 6.864655 -1.908715 17.266067 10.852840 14.108272 23.369786 -40.143406 -10.455135 0.242530 -13.238424 46.361542 56.636118 14.681210 -65.436000 -28.791840 14934 14678 
-49.567444 8.350817 18.923057 87.304475 -10.446601 -28.733756 5.323978 -31.154526 -3.871484 -6.712497 -33.828426 -4.022348 35.472016 5.102317 -18.332439 26.192861 14935 14679 
-59.360116 9.903779 17.952309 70.214311 -2.690271 -23.747765 -0.152335 -12.119912 6.200677 9.427839 -42.664902 -28.302092 15.122343 1.189338 -15.226697 54.253494 14936 14680 
-42.376995 10.978376 17.785066 29.931875 7.058742 -13.667612 -5.770293 -3.939158 5.541543 26.970479 -16.558120 2.908298 6.760735 0.793601 -22.593845 -3.822693 14937 14681 
-14.289753 -4.875770 7.750199 8.037847 -0.572478 -15.407488 16.338966 3.018478 7.927839 6.360199 -10.429920 13.644623 13.166406 9.812455 -20.307397 -20.174205 14938 14682 
11.170845 5.885890 15.515949 -15.548883 -26.847786 -36.675658 19.701102 26.798541 -4.311957 -11.656969 -27.259696 -31.675856 23.662260 28.009537 -20.208651 43.441331 14939 14683 
20.827918 7.203761 16.938263 -27.091037 -8.877736 -28.517854 -3.232220 22.748905 15.743279 -3.122852 -4.063202 -58.247184 -1.739786 3.970222 -38.588752 86.048275 14940 14684 
28.193000 8.862188 9.465339 -35.459280 0.450130 -24.820022 4.277031 9.031614 41.208722 -27.837984 0.641858 -64.000560 -16.927057 -25.693566 -4.929331 97.537919 14941 14685 
38.835707 3.838420 -2.021303 -38.989335 -17.337606 -34.394852 58.333703 -8.264734 14.836526 -49.524546 5.695407 -36.648491 4.808234 -14.894744 55.747951 19.979664 14942 14686 
34.235454 -5.276783 -5.801940 -21.134001 -4.508772 -1.890122 17.682635 -13.306472 -24.913812 -34.214099 11.994334 26.421733 5.305989 8.744663 66.097959 -59.436767 14943 14687 
19.233010 -15.210979 -18.396468 -33.812801 6.982316 22.928064 -17.029156 35.306013 -35.703512 -15.404617 24.902786 61.453150 15.204288 34.229389 63.005511 -147.686994 14944 14688 
5.642639 -31.887544 -41.667920 -75.751578 5.722604 30.895597 41.487528 65.558674 -44.006616 -0.526661 62.519806 81.847059 30.475833 36.091165 38.462089 -204.862675 14945 14689 
9.195498 -10.125182 -21.105774 -60.521249 13.846878 46.060230 -49.932670 72.582270 -67.707347 -32.551793 40.846746 61.799147 10.035485 15.313285 31.501090 -59.236612 14946 14690 
13.950499 10.251075 -2.818797 -14.926300 11.829036 43.248432 -116.916154 55.382208 -48.285093 -54.184206 5.748997 2.058254 -16.967243 -19.940711 15.244873 116.325128 14947 14691 
13.273550 2.159812 -4.723200 4.809730 3.315946 24.634121 -47.820101 4.350144 -18.377603 -28.411079 8.595413 -16.698946 -54.510569 -61.215015 -24.246056 194.863856 14948 14692 
16.643012 -5.345271 -6.843574 -3.399857 4.027766 28.060229 -5.899765 -27.242540 7.455165 -24.488246 -14.159304 3.249966 -66.283727 -50.760793 -13.534108 158.521048 14949 14693 
13.680947 -4.275402 -7.721892 -20.091958 -5.516143 21.137833 45.481177 -42.694562 54.935829 -22.106038 -37.251198 -13.055121 -21.187960 -10.613478 -6.986737 56.264704 14950 14694 
14.627930 12.478429 17.425138 -0.599035 0.288369 -9.462451 25.266128 -60.024507 74.586266 16.121715 -17.552204 -51.939818 12.740292 -1.941585 -26.051832 -5.962835 14951 14695 
28.223470 27.782988 37.756656 11.486341 8.624064 -38.683389 -18.963148 -56.226981 58.788068 65.478728 2.659771 -69.617292 -7.568647 -22.390998 -22.522199 -4.827431 14952 14696 
18.880308 31.068873 34.681012 0.844389 0.354343 -50.807021 22.497953 -57.519857 45.235482 76.680720 9.742540 -48.303729 -25.271228 -41.070535 -24.221367 7.208118 14953 14697 
-14.345549 16.600130 8.778127 -11.492806 -9.487005 -33.591391 82.334735 -38.796241 26.998516 33.566033 30.269336 -31.575450 -9.035006 -36.286357 -39.743407 25.806335 14954 14698 
-33.490263 0.765919 -5.387349 -10.177424 -7.722974 -16.519482 68.881889 3.649683 -3.829301 -48.102504 4.642190 -28.063212 24.359693 -4.190575 -1.304292 56.488001 14955 14699 
-42.796038 -3.177012 1.106022 5.789261 6.313723 -7.783317 38.148593 2.398769 -7.922209 -69.478165 -77.445752 -21.260891 43.813314 32.441063 58.481774 41.370865 14956 14700 
-46.097667 -14.520164 -12.869126 7.587592 36.496246 34.550209 15.063865 -20.210954 6.973207 11.196435 -53.142699 -23.911316 12.258040 24.845602 35.024253 -13.243521 14957 14701 
-34.249291 -22.580955 -16.841485 23.834200 70.469242 80.845449 -57.514178 -43.962983 5.926352 24.215307 -15.033782 26.283231 -15.025076 12.577034 1.052657 -39.995722 14958 14702 
-20.826963 -16.674881 -2.463811 35.770071 48.186375 73.481673 -67.887126 -49.585339 14.052092 4.676291 -44.609233 23.879487 -25.678742 17.393759 8.981424 1.304921 14959 14703 
-11.186531 4.432512 -0.097611 26.390716 24.809282 76.332981 -109.643224 -11.038125 10.304365 12.811217 -25.397897 -7.715648 -27.586902 11.933590 21.527712 4.123563 14960 14704 
24.079877 20.641577 -8.608476 -3.801540 10.115775 55.644020 -115.678548 17.607315 -32.620589 -37.483701 9.689778 65.494997 -8.131428 12.701781 31.604539 -41.255378 14961 14705 
45.677543 2.870764 -10.237801 -11.039750 -19.112697 1.666273 -41.119687 31.295354 -45.834614 -20.852344 64.983344 71.018411 -7.892408 -2.076612 17.669174 -77.014951 14962 14706 
12.284578 -56.286700 -18.290901 19.182584 -32.046421 -36.478920 -6.405227 118.041008 -19.685065 54.956246 81.167706 -0.942230 -21.456879 -22.034741 7.146954 -79.151990 14963 14707 
5.866796 -69.920742 -5.166201 46.747871 -45.354584 -83.413145 20.924442 130.315562 -7.321139 34.923285 37.652320 4.885472 -5.383015 -2.961243 -11.389469 -50.406211 14964 14708 
