-15.924726 -18.614701 -8.315378 6.689215 15.978969 -1.384566 -7.260276 28.831461 5.209451 -108.213686 -15.755610 -51.043331 56.041549 35.735138 43.740905 34.285584 14146 13890 
-35.540182 -5.546579 15.610251 -14.422521 25.944160 -3.017688 -3.211989 20.184547 19.949365 -75.286668 36.787637 15.420388 27.221192 -5.143020 1.876351 -20.825245 14147 13891 
-59.847065 13.948731 36.236345 -29.781384 40.569463 4.930336 11.760513 -17.816939 40.962208 -42.729542 70.752814 45.426345 8.035988 -27.397272 -23.502127 -71.548415 14148 13892 
-22.761068 45.153166 52.870137 -105.721505 24.883356 6.121701 17.127206 -17.672994 24.443471 -13.037628 46.265661 38.566260 -13.570941 -23.427595 -6.726811 -52.512417 14149 13893 
14.913287 54.826300 3.465502 -171.365718 19.136910 25.744794 31.332364 21.946561 -31.221520 2.607854 4.189995 27.645164 -8.509397 7.423145 20.166252 -22.301492 14150 13894 
70.566363 8.885474 -44.989574 -162.577848 7.319632 30.850969 44.147019 45.797965 -46.156878 5.276954 2.270704 26.847207 -1.804487 20.490493 8.184702 -15.108694 14151 13895 
123.345035 -14.615500 -26.636819 -110.556443 -29.375534 -0.874699 16.818344 41.895617 19.520924 25.678930 -43.267708 28.609889 -31.307621 7.797113 -8.059073 1.027546 14152 13896 
102.122152 -41.489295 -32.314328 49.136942 -42.898437 -24.542033 -21.606899 11.591898 45.895227 31.759632 -42.719618 93.506435 -64.015967 -13.015768 -26.414955 -24.994988 14153 13897 
59.111098 -29.356945 -50.780608 156.769497 -37.535524 -30.162173 -45.722131 -22.323214 -20.247725 -7.290430 -0.174452 164.759695 -45.603916 7.488055 -22.748651 -76.182576 14154 13898 
24.068268 -2.838761 11.676160 215.925358 -59.944466 -66.315580 -74.162444 -48.408535 -96.495800 -2.801886 -7.979472 93.865103 2.393595 52.534596 23.090001 -64.606136 14155 13899 
-21.273442 -36.336354 46.618782 220.674391 -46.660867 -54.206906 -60.649281 -48.166322 -102.046035 28.724644 -1.749527 -4.412971 23.896309 54.870116 38.793715 -38.076251 14156 13900 
-36.524548 -16.156996 11.527557 43.109913 0.081684 5.640454 -1.136489 -6.541576 27.477193 68.782411 -37.981648 -128.497337 16.640608 24.574872 20.027473 8.976427 14157 13901 
-26.919721 22.030135 -2.071150 -64.508482 4.118986 13.807919 26.257685 27.284629 61.371886 54.771261 -94.089805 -95.566512 3.753700 10.242297 3.754302 55.762871 14158 13902 
-14.157663 21.401546 -12.927395 -94.780589 8.324694 15.467353 24.752749 51.919305 -71.696152 -1.689380 -109.169346 74.311488 28.594411 35.607583 22.609320 21.432076 14159 13903 
31.827599 -15.046693 -11.735284 -163.518168 27.525462 23.661507 39.542893 67.742684 -135.252286 -3.838097 -57.669340 46.945623 63.836552 59.545978 50.523670 -24.092100 14160 13904 
48.195122 -18.210001 35.743360 -103.657546 3.276798 -8.820893 20.023325 23.449835 -66.738570 19.141991 49.967783 -39.889120 17.175559 18.793657 25.322939 -23.774239 14161 13905 
11.747182 16.944784 79.140671 37.333221 -46.801961 -52.654419 -30.905682 -14.803796 -4.307505 -17.525114 142.802494 -68.060549 -12.273108 -6.311622 -10.766421 -23.558175 14162 13906 
-25.180783 -10.108716 58.465089 97.592202 -32.487290 -34.746722 -23.598619 -29.935160 27.649397 -30.381409 161.642055 -87.427888 -12.528641 -12.839824 -32.069634 -14.044056 14163 13907 
-64.435899 -8.897673 65.681328 14.661284 10.559166 7.837397 12.473200 -37.878803 86.818711 25.842011 108.758434 -88.825458 -43.200628 -43.543992 -54.667732 8.818654 14164 13908 
-84.797318 17.786974 40.020418 -76.394388 29.417655 32.499121 32.659878 8.807661 72.117886 42.697468 61.494119 -53.723087 -47.432014 -47.543335 -55.168382 27.557344 14165 13909 
-56.381515 22.411432 -26.021814 -72.111439 20.005863 36.029828 32.525090 43.542554 66.370527 57.494056 -26.397448 -57.880697 -40.385390 -39.440212 -24.502625 64.741789 14166 13910 
-31.244450 31.483082 12.118780 0.811004 -10.970343 4.431142 -0.147850 -6.481365 25.056600 32.644318 -18.132822 -35.039003 -28.175301 -32.239991 -8.667293 64.553492 14167 13911 
25.815393 34.896889 13.735473 55.351726 -31.759294 -25.394271 -25.474760 -47.171156 -10.859703 -17.445737 70.507044 -15.955224 -22.841727 -36.872662 -7.309982 40.777990 14168 13912 
69.853623 0.683557 -62.220189 26.535500 -15.260685 -6.923531 -12.275147 -0.393129 6.879973 -43.618004 -31.145399 -20.188398 10.853593 4.090829 33.196680 39.930726 14169 13913 
35.623096 -55.415971 -83.939625 90.902165 -10.939851 1.563617 -12.472235 34.678803 1.957586 -43.470649 -108.545724 31.063014 13.254200 19.609216 50.365139 35.767217 14170 13914 
29.841440 -48.907494 -54.492613 115.004108 -33.088798 -18.787085 -21.968758 32.399200 17.524718 32.457919 -23.436527 147.923989 -49.296045 -62.492160 -32.084299 -30.597596 14171 13915 
30.279317 -24.093880 -51.656511 -18.513603 5.829091 14.136497 12.152529 31.866559 -10.681659 48.089328 16.059513 230.820183 -47.396434 -80.821038 -73.210236 -82.859659 14172 13916 
38.230770 -18.949907 -35.822999 -86.664186 42.739359 41.502433 30.042767 -11.078237 -23.335687 22.042345 -38.996831 93.748578 16.402294 -10.620706 -14.519632 -44.720360 14173 13917 
88.727372 12.949155 8.682996 -101.507262 12.369298 20.458721 0.150991 -41.831270 -30.491086 5.261657 -9.643881 16.185730 37.551417 19.013275 1.134797 -39.011910 14174 13918 
112.564736 66.420928 19.292105 -146.808849 -19.625916 -1.787738 -19.883349 -10.171917 0.644610 8.977268 8.839829 -35.752916 14.992728 17.933483 1.732186 -17.367188 14175 13919 
54.026773 79.037797 5.243630 -153.801404 0.377020 15.052967 -2.255090 2.318305 55.091685 2.411734 -89.848351 -130.523780 28.884992 47.896590 38.333262 47.753867 14176 13920 
-19.732626 46.266915 -9.736145 -93.569833 22.605775 39.396347 15.320450 -0.550884 12.898144 -91.269009 -156.974438 -10.830882 55.581539 68.686122 59.112798 62.795726 14177 13921 
-55.621124 15.621142 -29.799521 -2.264275 36.408523 33.923431 7.007515 -5.275691 -2.842409 -105.756606 -125.963139 71.572784 27.348088 40.345573 42.224266 53.071443 14178 13922 
-43.872756 -2.039801 -15.612734 72.282708 33.195840 -3.174127 -12.672875 -28.106256 21.980788 -55.197265 6.050273 16.995983 -10.481494 -5.781056 9.191328 17.241442 14179 13923 
-15.534388 -23.809312 64.422754 102.979302 -4.727040 -52.610069 -30.506118 -40.215130 20.337096 -19.165186 88.387488 -24.761021 -18.879758 -26.724712 -11.692838 -7.501070 14180 13924 
-38.337984 -36.260028 91.277265 98.949110 -1.022977 -41.430959 -26.292398 -46.882029 1.636276 -20.646004 150.112350 -30.070284 -15.267966 -34.882068 -31.846838 -19.035465 14181 13925 
-48.205326 4.238229 61.014307 46.946681 5.138496 -23.829556 -17.325105 -27.977726 -37.639349 -43.816849 155.095157 51.467972 8.735491 -29.038139 -47.385111 -57.419172 14182 13926 
-42.144889 30.547001 82.518122 -31.106573 -7.555191 -24.735672 -12.714013 5.191215 -40.900681 -7.402054 61.190874 76.884059 8.197144 -21.528965 -35.866505 -40.573871 14183 13927 
-61.452066 31.303938 63.141992 -37.371596 -3.339504 -8.051159 -0.951455 16.719850 -15.887655 39.138836 -6.452598 -13.974167 3.215566 -6.329854 0.703684 -0.413810 14184 13928 
-94.030005 25.161755 -14.659423 24.152425 16.880696 14.068845 14.898944 13.526763 14.885140 76.676680 -42.026414 -89.701829 15.211058 8.912755 16.782406 -0.739796 14185 13929 
-44.816653 10.938066 -83.416347 -9.966533 35.329962 25.941576 31.912588 34.077341 25.311584 106.781211 -15.551853 -89.398358 -6.499294 -10.024673 -2.103647 -8.514970 14186 13930 
28.480455 -16.173238 -102.140491 -27.890418 19.065870 6.804228 30.647848 61.205745 13.630212 57.690145 -50.175565 -47.717990 -1.181377 3.008691 2.449807 22.296077 14187 13931 
30.796196 -48.251082 -55.225606 25.367036 -11.911830 -7.886130 22.088962 45.022454 -2.554119 -41.775238 -107.196509 -29.977468 36.330095 51.655746 39.759362 53.758130 14188 13932 
56.283065 -93.645864 4.465287 63.707745 -32.411113 -11.733099 3.744613 9.589367 -11.165588 -29.303622 -9.358238 -31.466598 8.426499 34.798108 25.435873 12.633566 14189 13933 
58.156651 -113.102458 44.425408 63.321428 -33.566724 -13.835465 -3.431542 -1.967299 27.485231 68.129174 67.045017 -65.771807 -42.707029 -24.026703 -17.879033 -12.274850 14190 13934 
9.459635 -14.546012 55.377520 53.926555 -44.460603 -26.227046 -14.974512 -18.555537 53.800129 154.554052 28.761569 -122.854067 -54.527037 -44.159290 -26.775464 11.200109 14191 13935 
-39.895016 9.909722 49.114168 125.613331 -34.668344 -28.737115 -39.983632 -41.353114 -0.956416 62.809210 32.654753 -62.137381 -16.906028 -12.798891 -12.067200 9.401953 14192 13936 
-28.101574 19.718277 -6.430128 96.236479 -14.389733 -18.417308 -33.397824 -15.218190 -81.021665 -115.669352 35.188398 70.633296 36.974364 33.120891 19.817754 0.956315 14193 13937 
-2.541297 51.680018 -25.265374 25.211333 -21.739673 -12.456472 -17.627986 2.739450 -69.962318 -90.716155 -5.881226 49.751406 35.090265 36.047076 39.448192 6.222761 14194 13938 
-5.800438 5.217253 -7.990165 -14.766246 -6.815609 12.357579 7.588618 10.209009 -10.147120 -56.751672 -28.065633 15.480185 28.940884 29.662047 25.409734 -4.528425 14195 13939 
9.014478 2.817794 -13.419744 -63.372744 17.731618 26.499243 19.662266 1.067089 27.136316 -75.910697 -16.712500 57.985280 20.399342 10.288350 -16.408479 -6.777612 14196 13940 
-2.119477 30.364044 -27.281673 -62.636748 28.741452 38.050707 13.902830 -19.021136 32.004078 -59.564362 32.532087 39.720514 6.175593 -9.055836 -34.399308 -7.412765 14197 13941 
-1.732721 77.020985 -44.049544 -53.185038 6.875753 25.205987 -2.050251 -8.085172 46.197637 -74.997995 -16.120938 -19.574911 21.693894 20.302131 5.378226 17.121956 14198 13942 
-9.454740 67.186829 -15.395509 -35.020722 -9.499840 7.678337 -4.292892 -1.201463 39.481123 -55.546557 -57.356376 -27.539036 29.484128 32.837573 24.544225 14.094919 14199 13943 
-70.193211 35.948137 -13.676074 -38.944668 12.616864 24.196728 30.889169 19.163054 -52.652081 13.915035 -5.016368 23.670395 26.591615 19.749872 1.495213 -27.753680 14200 13944 
-60.855432 37.085637 -34.386705 -60.983566 17.251915 28.520498 46.102404 27.265248 -62.892338 25.285457 -43.497904 39.047755 17.949924 20.910806 13.788820 -10.592520 14201 13945 
-1.992519 -16.552331 -23.974799 -82.347381 26.115928 40.751573 42.995801 15.003730 -17.824478 21.822739 -72.078517 19.930177 -0.361571 13.816067 26.957442 7.738141 14202 13946 
46.795950 -70.249472 4.069032 -92.293702 36.945995 36.598561 38.498314 -0.364679 -36.545282 36.052570 -36.361404 26.904134 -13.384677 -1.386409 20.545556 4.175513 14203 13947 
148.516580 -87.559945 24.095434 -42.414201 -10.019673 -14.765137 14.828804 -32.681861 -2.473068 44.551890 20.099997 38.061762 -42.976922 -31.806158 -3.073386 -22.384115 14204 13948 
155.363774 -78.696334 19.808594 24.389652 -44.909158 -38.470759 -13.117735 -24.368033 40.386058 69.316313 57.190779 41.071002 -57.848844 -51.106457 -29.848905 -69.159948 14205 13949 
108.988280 -91.113082 -33.603071 -23.612026 -15.929912 -8.062340 11.096259 52.235892 48.293097 67.966307 45.408298 57.659622 -40.557734 -31.863076 -30.328764 -116.577751 14206 13950 
72.178003 -86.496281 -80.192386 -67.483477 18.793154 26.058674 54.055662 63.086652 48.833240 48.780517 19.114067 24.174379 -11.921651 -2.980262 -22.378808 -103.621483 14207 13951 
10.428599 -9.360268 -77.119345 -25.053653 24.053714 36.513234 25.430637 15.107083 4.975706 -1.580597 -32.886312 -21.685592 24.893792 23.963324 3.670440 -1.350761 14208 13952 
-20.747077 46.452559 -43.858623 33.671435 7.954469 9.676020 -32.952101 -0.196681 -38.310310 -62.899793 -39.564435 -34.928147 27.267200 24.239429 24.528151 99.667905 14209 13953 
-74.774263 87.356513 52.571038 137.906500 -12.299563 -41.061142 -79.202032 -70.497050 -24.717414 -31.897055 -23.364366 -72.915624 8.094608 13.457165 27.205970 104.136717 14210 13954 
-107.781673 88.691420 86.807012 219.111708 -21.609478 -62.690053 -107.715542 -94.813395 24.969605 38.454719 -26.795538 -63.727466 -8.427203 8.209111 12.484124 14.832648 14211 13955 
-120.412753 70.163240 59.805334 181.162642 -31.330646 -49.740297 -86.841760 -22.805760 40.327967 61.242938 -37.853152 -29.833505 -4.374141 5.606668 6.047770 -41.164545 14212 13956 
-113.290384 19.689028 51.736866 87.887274 -17.541504 -13.613495 -29.684238 14.816453 14.663004 73.362771 -25.661011 -36.406652 -11.449483 -15.727408 0.446902 0.771876 14213 13957 
-96.534726 -58.619492 23.443503 57.671888 36.760476 16.942731 8.051104 12.284516 -44.670065 42.137029 29.093082 -41.989119 -13.252360 -16.108457 -7.119952 51.909843 14214 13958 
-30.461630 -27.140377 -24.972108 -26.422451 56.525971 15.830841 26.563852 10.075902 0.581379 -54.529667 138.414143 -104.572975 -28.416620 -13.273731 -25.678880 87.476350 14215 13959 
19.807797 7.602523 -35.614169 -124.766998 34.976357 18.988841 40.414356 38.591292 42.919253 -132.777978 207.262292 -5.526097 -77.983121 -49.634415 -57.889898 73.629964 14216 13960 
-3.613277 -1.932329 -2.242011 -110.980648 12.655460 18.208963 34.229508 53.674334 -51.616040 -96.343988 152.621223 199.117501 -92.106509 -68.456220 -65.255292 22.039326 14217 13961 
11.120923 -20.750463 8.784407 -91.042718 -3.443841 10.439593 37.706991 47.185108 -15.075193 -39.165578 81.282707 130.475736 -85.038617 -75.816999 -66.623922 69.961866 14218 13962 
41.102074 -27.397536 0.460250 -83.579276 -14.983252 11.005953 40.023850 33.367936 75.920577 8.714894 -44.002148 -28.986254 -35.376333 -30.120365 -37.507915 91.357543 14219 13963 
57.175962 -14.610141 -14.836077 -52.341778 -17.966894 10.792668 29.927907 1.858355 79.526095 59.385926 -127.843715 -92.751086 6.331537 15.452206 8.144300 51.754737 14220 13964 
51.139665 -21.458891 -17.694736 -15.783618 -3.295927 2.368292 14.980577 -10.255362 30.247355 -27.953878 -109.707035 -43.505625 36.846609 44.696005 46.252871 23.123698 14221 13965 
35.995339 -16.021747 -8.884540 3.445664 16.382713 -17.148264 -4.101209 -9.667956 -19.341337 -51.746416 -104.053534 -15.031248 57.143926 65.985051 61.205244 5.838314 14222 13966 
18.787926 0.458819 -26.027565 2.542930 19.363999 -14.302983 -4.790965 3.967839 -32.202772 -1.241777 -58.220884 11.148848 23.309364 27.190531 47.364171 -17.347482 14223 13967 
-8.492136 28.556241 -11.464376 59.800472 -20.162830 -28.034665 -26.624246 6.421539 -43.154413 4.597726 -29.797072 53.866267 20.974252 18.972983 33.518567 -58.978310 14224 13968 
-13.072472 26.642309 14.324585 113.293084 -48.145118 -40.517303 -39.114009 -13.411075 -46.358443 26.872115 -47.613715 43.171410 18.566197 26.197948 20.878085 -41.713596 14225 13969 
-6.934889 10.023073 -2.391636 119.601154 -38.987798 -23.789903 -24.442484 -33.077516 -80.875504 -27.050091 -11.378391 81.141512 36.459053 45.710403 17.401919 -61.408899 14226 13970 
-2.580743 10.275175 36.910671 60.798310 -28.900457 -19.275084 -26.986655 -30.241215 -54.580631 15.158458 41.869324 48.277445 29.151041 28.544204 -3.803354 -104.616487 14227 13971 
-0.128742 10.624023 91.430899 -72.448695 -9.144183 -3.863961 -10.762243 -5.707097 1.985512 64.646109 35.217254 45.160033 -8.204112 -0.123241 -20.793671 -117.887885 14228 13972 
-26.088122 38.696841 91.458997 -66.268818 -1.736882 -3.473049 -6.889412 -25.699554 -25.766032 -64.969236 0.641541 106.364554 51.274717 44.420755 5.529972 -117.496271 14229 13973 
-24.292961 50.395227 55.839685 -65.451589 6.616665 5.484591 -2.880758 -25.710861 -49.422992 -49.986557 3.603000 52.577358 54.764911 25.182030 18.912094 -55.629845 14230 13974 
-8.759714 26.994476 8.749617 -84.571526 23.403315 18.237576 23.244793 -7.298537 -58.675576 -16.775009 13.920644 -32.245639 8.792193 -13.019784 22.949538 75.053634 14231 13975 
6.311929 -0.376599 -21.984507 -66.952031 39.042070 16.911944 36.053443 -9.006249 -10.497693 -24.736081 13.866602 -93.746864 -12.410136 -24.811117 22.166280 130.169008 14232 13976 
11.947730 -13.367868 -18.013434 -68.793928 32.023898 19.666018 32.455577 4.082006 114.651507 53.612035 56.431715 -174.593665 -16.226033 -39.377920 -17.396843 22.899203 14233 13977 
-2.973552 6.643392 12.572488 -25.642506 -1.992907 1.915919 11.890486 -2.413320 185.062307 31.004156 65.520477 -152.192676 6.400374 -40.404269 -45.556427 -49.833941 14234 13978 
-24.997165 20.825690 7.365382 5.638221 -0.014785 0.532029 6.406534 -15.755906 61.772808 30.870132 15.627870 4.439122 17.297298 -23.354082 -35.711347 -70.941802 14235 13979 
-42.868020 23.342691 -11.996163 66.409150 -3.076378 -7.731446 -0.394066 -23.685768 -152.781994 81.696055 -0.123540 73.595620 47.227024 13.254581 -0.754097 -62.113649 14236 13980 
-20.605928 24.535944 -10.676048 98.992989 -17.166151 -22.328304 -20.507638 -32.244865 -121.700758 72.700617 -15.087380 -8.169456 38.770129 13.191555 21.151523 -0.856230 14237 13981 
-3.254695 22.220452 1.528212 82.887230 -13.909466 -16.229446 -48.737258 -24.505030 32.870062 40.572933 -76.119074 -137.607872 26.066530 23.082401 38.887056 52.247964 14238 13982 
37.992733 -6.401542 -22.062263 -5.277349 -10.375297 -0.336657 -22.329913 28.790288 88.776076 14.280446 -96.267981 -171.807250 33.522002 38.364180 40.962653 52.169873 14239 13983 
115.519523 -33.208175 -79.522373 -105.890962 -10.359226 19.462691 41.038036 52.960486 145.110746 -23.656275 -146.836661 -173.440349 30.919991 59.300101 44.023223 64.579223 14240 13984 
112.825321 -17.551065 -86.645661 -79.183848 -3.536912 30.608730 33.836932 9.646503 141.130138 -42.079373 -167.582886 -109.384134 16.152220 51.122134 41.517233 69.124669 14241 13985 
45.354528 -21.272110 -82.553656 -19.750494 18.613938 47.583221 0.206541 11.818031 63.600564 4.718988 24.727261 76.054890 -43.450843 -30.604591 -27.082129 -67.964139 14242 13986 
33.647830 -2.982195 -73.810476 20.694540 -2.045763 31.991362 -50.693775 43.198479 -83.288382 -2.091440 172.106892 210.764452 -49.221112 -42.011020 -56.720562 -149.538828 14243 13987 
50.132712 -5.698958 -54.515860 -2.207713 -14.164736 15.720163 -42.158765 52.893158 -179.318025 -58.721075 202.445138 293.018574 -41.564155 -37.032753 -55.461036 -123.366668 14244 13988 
45.169163 -57.927840 17.977516 -29.393336 -1.104887 10.663209 -6.650167 21.266342 -97.144729 -46.284728 114.684072 216.035409 -50.556069 -66.514955 -50.367231 -19.851771 14245 13989 
-24.729443 -45.803237 128.281854 41.626589 -1.729743 -18.507063 -36.992384 -42.146572 -39.752163 2.789068 -36.901784 109.295878 -36.479459 -76.335431 -32.723154 110.107045 14246 13990 
-100.137280 0.998154 115.209894 107.078407 1.356738 -25.696099 -31.766886 -67.042927 -3.647954 10.763627 -48.002107 38.470968 -38.975794 -72.600271 -20.609669 134.601199 14247 13991 
-117.935996 -13.875606 64.603036 148.520921 -4.153428 -12.661225 -10.249873 -54.247829 20.758013 -6.311499 -24.222646 -21.285084 -28.211831 -46.535675 -0.547570 106.356293 14248 13992 
-117.140358 -23.849561 40.425976 151.206639 -0.015204 -9.161880 -0.134387 -41.331225 2.967082 -9.924231 10.580166 14.313461 -13.428642 -25.317763 -6.793459 27.603386 14249 13993 
-110.807658 2.172301 18.180776 65.106070 23.689445 0.710284 13.764013 -12.815232 -23.814482 -17.156007 25.046311 111.253716 -5.873510 -15.711296 -22.663629 -51.081103 14250 13994 
-91.824226 -6.688809 -3.994215 -34.368420 50.622268 26.059656 40.424780 19.768966 -35.243712 -9.445517 3.950446 119.596317 18.321962 7.235948 -13.546662 -90.868783 14251 13995 
-2.441097 -23.450916 -26.376728 -79.579819 50.102013 27.096443 45.311261 9.338842 -17.073334 33.930777 21.727656 -59.258354 38.522307 36.789351 7.383356 -62.021760 14252 13996 
119.906139 -31.412608 -29.148259 -120.660594 24.623627 3.482633 22.405937 10.803124 -28.679707 52.988032 125.217768 -66.231300 -1.036944 -6.264083 -29.475547 -46.518219 14253 13997 
172.270401 -12.819235 -33.165534 -154.025704 -4.370502 -18.330043 15.612240 34.828377 -4.273601 36.544211 133.536436 -59.553479 -12.073965 -30.928554 -52.940512 -10.310537 14254 13998 
110.128151 6.245061 -29.665212 -79.988417 -19.001126 -24.526233 2.548652 34.259123 30.999172 -2.547697 -56.807406 -105.624443 32.955538 24.013985 -1.809567 78.820418 14255 13999 
28.518016 3.818735 -5.775883 -3.461675 -16.611045 -21.630121 -0.478417 15.620390 64.553601 -17.083478 -124.281271 -112.234938 27.166136 40.670136 42.153124 79.056690 14256 14000 
-10.403568 7.293163 69.518706 57.201331 -43.051980 -47.621556 -17.743989 -15.192108 61.835924 36.392654 -53.048397 -174.752116 9.507608 39.713240 50.682097 29.668991 14257 14001 
-22.650029 9.573996 111.202237 89.663486 -64.340645 -59.099841 -31.817391 -32.531813 -22.055433 55.392851 13.837801 -91.564973 21.286839 56.507972 26.639165 -60.044223 14258 14002 
-33.464789 -8.493750 8.043169 55.150533 -9.677936 -5.153933 5.168647 -11.571941 -85.136507 5.182784 54.004199 27.312509 15.548366 45.250419 10.143947 -72.305717 14259 14003 
-30.836575 -6.620893 -76.809251 71.544075 18.043495 8.396568 6.155217 10.127364 -66.409864 -24.761494 35.403568 75.027582 -19.057734 8.195471 3.181995 -11.579523 14260 14004 
-11.581851 14.998301 -54.389623 48.591395 -2.032293 -8.390298 -7.126094 19.930462 16.168167 12.278479 -48.729686 34.650225 -43.545389 -17.521992 5.237974 41.462221 14261 14005 
-11.552631 6.126050 -21.654566 8.860700 -10.169103 -1.881716 9.320883 20.950383 93.982264 38.216641 -119.367953 -47.481793 -47.679529 -21.132582 15.426169 88.036784 14262 14006 
-20.852971 6.343524 -3.712226 14.627753 -17.265470 -6.928536 18.071512 9.716414 120.002870 -107.329512 -138.358445 -52.915256 8.812659 38.026350 41.048746 90.712589 14263 14007 
-41.882485 15.897955 -29.608661 -8.209168 7.387747 15.471638 21.541805 19.401170 69.360114 -150.609925 -116.470667 -25.712158 43.304261 62.066088 50.218028 67.844260 14264 14008 
-27.567613 40.471243 -33.483988 -58.522500 17.441282 24.721037 14.833222 22.107317 11.614156 -50.213741 -29.202884 38.430439 3.664123 5.807623 8.105158 11.795126 14265 14009 
-6.757391 49.995051 1.299262 -111.856208 11.231481 26.631540 20.075208 9.381057 -14.030097 -82.049704 -10.179459 136.175245 -6.617030 -10.046719 -4.859748 -8.392488 14266 14010 
7.228250 18.676167 5.930344 -137.427404 12.589310 45.985204 28.281691 18.736437 -7.893792 -38.283266 -42.267268 86.466236 -0.132429 -2.848122 6.004563 -1.045921 14267 14011 
18.883271 25.736779 -6.178309 -132.768634 1.606760 35.492408 30.491187 26.736538 17.327898 15.923976 -28.490067 -46.966111 18.048924 9.797025 15.534634 -1.176280 14268 14012 
8.611095 61.471826 -10.745477 -113.736893 -13.565938 15.531376 27.461064 24.972946 16.924870 37.897523 56.391343 -59.865644 -1.364611 -19.418933 -9.668590 -20.895958 14269 14013 
5.119190 54.872579 -29.617729 -41.576173 -25.400342 2.335693 10.708389 23.558392 -14.936931 23.345248 130.478049 15.513474 -22.173379 -49.475030 -42.810587 -39.940844 14270 14014 
-20.353431 4.146315 -54.507208 90.579768 -7.932688 -0.811292 -4.413693 -6.707771 -46.334772 -16.451136 140.619464 1.321243 1.676275 -28.105329 -28.668033 -24.057712 14271 14015 
-50.482575 -13.563429 -26.308567 148.969804 8.627096 -11.609495 -19.619698 -36.013137 -36.401436 34.666374 129.945259 -105.909250 24.088043 0.363408 -4.705023 -42.047374 14272 14016 
-64.400825 -5.073830 28.311943 152.309267 15.013810 -32.363239 -39.596568 -54.200559 -30.087068 75.545108 65.960762 -50.942307 59.002687 45.893802 5.907495 -171.280479 14273 14017 
-56.929132 0.649152 63.241403 124.502760 20.431473 -38.377168 -48.407920 -65.110569 18.548349 114.240470 -14.725992 17.866185 67.503809 60.639803 3.810551 -267.883175 14274 14018 
-9.825532 -39.801639 32.471531 36.185194 29.855614 -2.716507 -19.707863 -26.460797 108.521690 140.198437 -80.989002 -23.493868 3.103086 4.214265 -3.778170 -147.776439 14275 14019 
68.101913 -121.854446 -11.274911 -34.201423 41.800759 40.894827 9.085921 7.447359 55.639729 97.648799 -124.289698 -74.744007 -60.891842 -41.717062 18.696303 129.657779 14276 14020 
121.954883 -97.308377 -13.976021 -62.455867 23.213911 25.017608 3.508453 0.045411 -100.345476 -52.938167 -123.832283 -77.314539 -17.368057 7.385510 64.454724 299.958287 14277 14021 
97.676650 -21.893862 -14.297642 -64.783908 12.019670 5.712436 5.585614 -20.018959 -90.111953 -135.379439 -42.621335 24.311327 -3.041749 18.557554 29.011354 199.274242 14278 14022 
11.393713 8.635287 19.374730 -30.348804 11.016744 -0.970073 2.087929 -21.189525 18.150061 -62.119080 5.190238 58.576412 -46.275725 -34.038467 -17.977306 78.493868 14279 14023 
-23.943853 18.841207 28.020906 -3.181360 2.561393 -10.827961 -18.258205 6.787872 41.680602 -10.050330 25.625733 86.014919 -38.775773 -49.542845 -36.801227 -18.151078 14280 14024 
8.709289 17.521312 6.339954 49.515251 -24.434937 -30.771038 -33.735666 6.855833 13.977174 -20.155536 113.246202 74.103742 -31.386906 -50.451178 -49.466333 -49.867166 14281 14025 
-0.515794 10.028784 17.378672 120.601315 -44.535220 -44.876359 -37.409392 -20.672005 -33.559051 -15.990035 143.142481 26.853527 -35.986442 -42.243369 -33.700293 -8.516818 14282 14026 
-11.977920 -9.595130 -3.186304 81.690129 -34.959252 -13.248517 -2.743329 -5.979676 -16.827384 28.310012 109.483762 29.840266 -40.671455 -44.044356 -47.547424 -18.543422 14283 14027 
-18.443036 12.151435 -24.797994 -15.123143 -31.861958 11.723431 23.816892 42.534373 -10.768088 40.958193 62.278042 35.453709 -10.416651 -21.134529 -45.947206 -50.423471 14284 14028 
-9.102255 50.523716 -35.291783 -131.631684 -11.968355 27.039995 37.409369 73.020998 -67.755546 -15.097060 55.155822 24.237319 46.112944 44.284019 0.593431 -87.530928 14285 14029 
-10.751581 54.439696 -9.094580 -179.174564 6.501994 42.053140 49.108506 46.917388 -88.410521 -17.139644 64.003593 -11.327652 51.513790 64.077318 20.353631 -83.070515 14286 14030 
-30.210475 50.856516 67.300010 -118.201543 0.865562 26.643340 16.094415 -13.347825 -63.045805 -7.464819 -21.585294 36.296460 32.175916 51.891194 14.934171 -43.201823 14287 14031 
-71.949310 53.429829 97.452288 -7.227887 0.267444 -9.863302 -21.175718 -40.933344 -11.332220 -19.735455 -63.673178 18.318234 -19.803628 2.556647 8.915131 84.754469 14288 14032 
-140.490015 53.529413 84.935422 112.993919 5.939347 -31.822239 -35.940216 -49.145630 74.396329 21.410516 -59.146441 -5.839161 -88.101696 -62.340800 -20.042458 139.663711 14289 14033 
-109.562237 5.947814 26.439349 139.545028 8.517305 -21.458894 -28.104074 -21.324291 155.376783 26.729439 -86.739450 -44.422970 -80.747010 -45.578118 -17.476541 92.857868 14290 14034 
-6.779801 -54.186385 -26.900198 48.773127 21.916853 3.054141 4.132177 9.990085 144.290606 32.097248 -56.329724 -125.258882 -31.337107 -4.030753 2.069513 38.499100 14291 14035 
132.541828 -106.029564 -66.536657 -23.637162 24.438854 9.403919 20.830310 8.988472 22.529749 72.112712 -15.428902 -92.279175 5.257691 12.957576 9.564317 -14.713967 14292 14036 
184.222114 -120.277304 -122.826317 -6.647483 2.906285 12.252734 12.951851 37.418120 -69.371432 34.662779 -54.955030 -41.217550 12.579682 21.200763 45.643399 51.457389 14293 14037 
168.884485 -73.311272 -129.431807 40.920286 -30.764199 1.827010 -1.635772 23.511267 -81.810535 -19.665548 -112.253309 39.196481 6.108659 7.560085 59.002754 101.861413 14294 14038 
89.302038 -51.777393 -29.000276 82.628669 -50.858384 -18.567596 -21.599132 -0.127926 -107.526747 -28.466360 -79.265324 111.678742 23.838220 -6.316906 43.992474 42.065901 14295 14039 
1.592036 -9.418902 69.340379 32.776373 -46.453938 -26.172934 -34.330042 12.667028 40.731352 -46.000436 -63.087988 18.727203 41.198281 6.687432 15.257106 -13.512951 14296 14040 
28.708856 22.686828 46.543498 -48.043682 -25.309009 -22.229941 -16.236814 13.880265 131.215364 -57.964877 -57.040273 -53.377841 55.583514 31.464436 4.312340 -54.192663 14297 14041 
-7.690939 4.933236 27.567450 -83.206383 17.125595 10.425012 12.510392 18.335637 -36.444477 -123.047825 8.114218 55.052521 116.857452 71.082362 24.713452 -116.327703 14298 14042 
-34.196324 2.606730 64.852419 -32.146761 15.776888 6.459813 -2.957490 -20.395276 -130.501492 -89.452122 95.551127 81.634792 104.152456 44.981548 9.354574 -115.720884 14299 14043 
-39.777490 -4.044593 67.451607 8.794870 7.513256 -0.166221 -15.827415 -23.944014 -114.798422 29.755292 142.825112 65.321007 16.255033 -18.987134 -25.327548 -95.043341 14300 14044 
-47.029026 2.302899 9.128967 -29.009992 16.280145 19.168180 14.744534 14.414293 -14.123129 23.660061 53.328645 41.173520 4.410882 -4.394437 -24.113528 -79.942014 14301 14045 
-30.630227 23.439705 0.275151 -44.018062 14.434486 14.724136 32.579167 -10.804356 39.419811 38.174567 -47.975716 -17.824307 -3.797377 15.106082 -5.781873 -17.321187 14302 14046 
-23.911458 58.602557 36.580212 -48.883972 13.248732 -4.635218 16.670999 -47.671853 58.010349 81.227857 -74.009477 -50.933098 -29.712248 2.983864 -9.946287 22.379039 14303 14047 
-19.978046 74.365106 53.414230 11.460014 -11.467479 -34.525145 -23.443932 -49.824748 100.289615 49.477910 -94.804366 -123.071630 -12.204156 11.876955 7.256391 61.179282 14304 14048 
-18.365337 56.169616 50.437695 52.645228 -19.694311 -37.312228 -29.724946 -54.155718 67.274261 -5.070979 -93.793598 -130.329609 16.727478 39.684100 40.514822 64.993526 14305 14049 
12.631901 23.271706 3.202123 28.938977 -14.328147 -19.292313 -14.887544 -19.536704 48.467675 20.040096 -36.356652 -107.827311 -8.808835 14.950012 26.882396 42.652620 14306 14050 
-1.273141 -27.703518 -46.855518 27.264928 -12.319084 -4.675550 -14.431162 79.993046 2.757308 16.808271 40.398587 -4.015934 -43.222316 -19.133163 -7.481241 13.888488 14307 14051 
-25.801861 -62.295947 -68.081246 25.373831 20.151114 13.097677 18.730193 78.826239 -29.817048 23.941944 105.791684 85.423647 -55.013223 -39.705342 -46.824480 -43.797182 14308 14052 
-0.868594 -48.482532 -66.070583 -56.902571 62.229178 44.390645 49.645448 16.059008 -30.174618 39.586399 103.654369 59.540194 -41.101333 -37.603137 -49.199411 -44.702463 14309 14053 
31.059135 19.422992 -43.636924 -131.447564 50.684734 42.134411 34.910554 -3.127337 -38.070001 -54.712537 53.980009 28.464801 7.756859 9.728801 -4.749539 -2.398393 14310 14054 
22.360935 60.025836 -3.214230 -82.184210 3.122998 -1.580670 -2.883985 4.353326 1.910561 -64.497184 33.834444 -4.595034 11.926102 13.662245 3.618356 4.140510 14311 14055 
-43.130895 62.491311 19.709379 -24.920334 -14.862524 -11.878034 -16.361140 28.952237 25.844618 -59.820527 12.427148 32.673341 -5.210263 -7.438487 -5.807381 7.331551 14312 14056 
-103.489717 40.012345 -7.837842 20.678491 8.297572 21.153944 16.953043 4.232164 12.837567 -12.956037 -26.305391 29.553499 -18.513335 -17.181355 -2.695073 35.260124 14313 14057 
-111.030344 2.362887 -69.409920 52.689470 23.015756 57.616013 55.155081 -10.398943 -43.189159 2.718607 -72.850423 49.491228 0.359175 15.537133 17.446038 30.487402 14314 14058 
-35.171145 47.290890 -79.562525 31.989944 -0.620537 45.216629 37.752051 -46.895308 -44.386961 -47.784105 -49.222748 78.237213 22.686987 33.031528 17.181552 -9.743466 14315 14059 
52.490459 76.798802 -41.687540 -9.719067 -8.281446 14.432588 -17.555248 -66.478548 34.247951 -4.329834 40.219592 44.281075 10.854534 -6.665968 -33.835342 -84.772008 14316 14060 
24.996991 6.008720 -29.159772 -44.389487 16.234551 20.109627 -14.659647 20.859018 85.076090 3.608331 62.094180 38.609741 2.678766 -29.968162 -51.878834 -110.220111 14317 14061 
23.940220 -56.760839 -26.268533 -123.093440 34.296756 38.942335 34.592977 74.350524 68.979322 6.142266 60.955863 61.557783 -28.964202 -46.642934 -44.834740 -77.193358 14318 14062 
88.179844 -42.604719 -5.420281 -163.629191 11.338654 18.390929 29.227285 64.517479 -18.880063 -5.614540 88.789705 95.076465 -32.188051 -29.355647 -39.453093 -58.374774 14319 14063 
54.063583 -41.381810 16.069584 -46.379717 3.869285 -5.307882 -3.037378 22.104337 -130.429804 29.983373 147.942467 62.626115 -17.596227 -15.328185 -28.457525 -48.740215 14320 14064 
-14.007625 -72.743127 33.313900 102.261938 3.680047 -18.499545 -14.461309 -19.544279 -132.064776 67.992463 107.901239 -19.997888 -5.115983 -8.725572 0.361902 -10.351385 14321 14065 
-34.841120 -48.431292 65.593259 190.749392 -37.105146 -70.408465 -26.724857 -38.831770 -27.030603 50.955259 -20.831031 -116.517802 10.030875 9.753154 29.709702 63.930446 14322 14066 
-48.510151 -29.954514 30.882058 226.142189 -28.234396 -72.037443 -21.923666 -56.364078 21.938798 117.667276 -35.749980 -136.658198 -11.238916 -9.915076 18.336846 35.619250 14323 14067 
-59.899720 -23.088471 -20.659587 198.738483 0.829673 -30.560898 -15.878630 -49.480850 31.216193 132.885254 -38.666152 -108.734099 -14.642860 -10.844705 15.933133 -7.146765 14324 14068 
-36.542091 -13.591182 -15.558634 129.695750 1.786144 -17.918716 -24.647104 -23.224167 -9.880458 -33.207034 -74.835862 -39.458958 43.540126 39.844369 33.766947 40.230870 14325 14069 
9.794334 3.469930 -31.346270 100.258388 -5.347122 -28.411862 -39.647771 -8.769627 -13.343980 -120.698406 -121.907666 -42.490995 65.137786 61.459212 57.210624 114.633425 14326 14070 
41.960129 -2.535720 -36.662280 60.429847 -2.176609 -24.626049 -44.960423 8.571105 22.946113 -12.694432 -109.044982 -95.023867 16.412950 16.540455 37.381646 123.482118 14327 14071 
36.101526 -20.795295 -22.357951 -54.492910 16.493531 15.176625 -8.649211 38.523686 32.909410 28.692228 -80.206436 -53.039357 6.667925 2.069028 1.493983 61.413218 14328 14072 
24.490685 -8.331288 8.125754 -124.302764 7.356803 29.402976 21.378425 41.879409 53.553975 -5.112368 -109.345557 -57.670477 29.349968 24.988101 27.514682 36.721676 14329 14073 
43.480866 -27.135124 37.972292 -134.808849 -5.421648 33.185283 23.823107 28.904072 4.532462 -73.412632 -68.663351 -108.750172 69.806409 53.196922 62.766740 60.523623 14330 14074 
57.421208 -16.807282 61.304729 -119.390504 -30.771483 15.162428 15.038768 18.042136 -45.501311 -124.361578 -23.106590 -37.179097 52.038836 32.672766 48.910944 96.526029 14331 14075 
51.706214 19.469582 106.218041 -63.183203 -56.373626 -26.942205 -14.792767 -16.102036 -23.706927 -123.353151 -23.631051 129.320044 -18.009590 -32.384898 4.128653 87.636919 14332 14076 
13.954614 49.466059 107.627816 1.375915 -43.699202 -37.390655 -33.858736 -57.475811 34.270258 -98.486001 2.054850 76.694958 -34.235420 -45.713198 -12.026424 77.440977 14333 14077 
-1.115648 78.318089 68.796403 39.432184 -36.086586 -44.895580 -49.749535 -54.699328 34.858166 -30.069626 41.989276 84.435710 -56.312281 -53.284428 -36.331143 14.714327 14334 14078 
17.424202 64.559326 4.442358 17.337980 -20.436556 -29.896177 -33.137050 -20.294084 12.807590 20.477063 49.653380 98.969048 -57.552068 -43.298000 -36.680987 -44.376026 14335 14079 
-26.495580 37.279259 -54.663467 -0.695328 19.745709 17.830459 11.266367 -4.267418 -2.353506 50.449301 72.132112 68.518956 -37.525460 -23.219659 -30.785801 -97.215943 14336 14080 
-43.575677 17.569011 -88.441901 -28.396972 38.856321 46.567953 35.005206 22.416058 -20.105179 38.550958 29.727858 156.687575 -24.306198 -9.766800 -36.192274 -134.595939 14337 14081 
-29.064731 3.838871 -86.523737 -14.836830 23.277394 32.973147 44.149425 26.186460 9.105188 48.231162 2.725602 -3.640973 1.780943 15.572155 1.880952 -75.655029 14338 14082 
-34.652196 11.228568 -17.675788 36.336416 -9.328937 -2.941980 15.310677 1.723241 47.617735 36.294641 126.851693 -103.039802 -14.008165 -13.462575 -17.640084 -62.613443 14339 14083 
-24.456354 18.950043 45.701914 36.896211 -37.385058 -23.330677 -9.311326 -7.064753 81.704380 6.436068 186.699059 -79.135619 -44.819436 -49.931858 -55.268145 -45.684449 14340 14084 
-19.488344 22.678346 69.021253 43.979086 -35.182150 -36.903383 -21.635254 -22.469554 50.640464 35.994408 77.968038 -39.812521 -27.752471 -29.255022 -45.650581 -22.132315 14341 14085 
7.209784 16.008150 1.691637 -56.597720 10.221700 -0.889580 0.772251 21.583778 -10.093904 18.291428 6.405751 20.267678 7.311538 -2.318888 -22.240442 -17.623161 14342 14086 
16.756261 -15.371036 -63.173628 -125.407128 48.251664 44.443061 38.865392 55.635414 -78.203480 25.207838 54.332731 -3.873463 26.316091 5.313970 -1.741885 -27.351802 14343 14087 
11.956580 -28.586108 -55.602688 -55.228382 50.962777 28.293141 32.998097 15.206583 -92.514467 48.472665 10.448436 2.675965 30.553772 18.593438 20.825013 -39.054821 14344 14088 
17.971810 -15.151066 -49.639448 11.647451 31.693747 2.822823 14.415911 -13.761227 0.889614 57.196371 -32.003586 37.036882 -3.243301 -7.975249 7.682276 -59.583007 14345 14089 
21.753438 -14.009065 -13.563470 14.980387 12.237020 -2.876687 0.911977 -19.433600 20.772218 62.294348 26.755306 16.709727 -26.478317 -34.819419 -14.673014 -50.560848 14346 14090 
25.871617 -35.127529 -5.212159 -3.459506 12.997356 7.907950 6.221554 -9.199282 2.277876 13.747265 14.861512 -45.024365 -13.317971 -15.083853 10.521971 32.017565 14347 14091 
29.215663 -49.927521 11.190551 47.011947 -14.817458 -10.730913 -10.380912 -1.561357 -15.624497 36.475082 -33.728134 -56.119172 -10.978323 -9.720192 23.662253 66.032982 14348 14092 
20.647812 -75.729773 89.588393 81.351486 -40.582730 -30.856197 -36.798546 -7.620445 -30.525729 75.493646 -46.073852 -86.777121 8.916326 7.110502 16.817842 55.038387 14349 14093 
-10.355381 -76.344726 103.308878 41.254323 -21.305718 -9.711816 -17.699697 -9.145864 -17.011656 38.945078 -75.628990 -36.954688 33.100242 18.871590 6.410282 32.268142 14350 14094 
-26.413778 -35.406384 39.092624 -40.620660 9.067595 25.139141 21.615334 7.526129 -38.021139 -33.473291 -56.595692 117.394845 9.821349 -6.286137 -2.362633 9.522698 14351 14095 
-32.737118 -5.110055 10.723027 -44.136989 6.981853 28.317800 18.088385 17.873096 -20.420960 -96.575938 -64.487256 144.290097 -2.974724 1.731648 7.531403 30.905729 14352 14096 
-20.211280 28.814959 35.743183 -15.528652 -17.670509 -2.998849 -13.092901 4.944050 5.280463 -88.429900 -88.643406 66.712776 16.074635 25.267290 11.221057 52.517085 14353 14097 
-24.159782 35.965386 47.413157 -14.144317 -14.471265 -10.107523 -19.405742 -1.089913 16.141973 -72.067113 26.444810 19.211639 -7.826359 -0.893594 -9.681817 28.670461 14354 14098 
-24.125299 45.974957 11.870422 -21.202431 -7.323085 -9.006322 -11.953094 15.764853 20.938084 -36.780971 101.907147 -20.081824 -27.056786 -7.411046 -17.483708 -14.030897 14355 14099 
-23.543420 29.902191 -49.480751 -36.801837 28.180079 14.814479 18.147449 18.781810 -6.706050 25.428617 101.303240 -8.098519 -10.631431 12.754395 -22.132879 -91.917373 14356 14100 
-48.335035 -6.219727 -59.070197 6.887432 49.678138 32.605671 28.678551 -4.224833 16.125142 43.303362 23.599135 28.692087 1.582288 21.758870 -13.530873 -121.530012 14357 14101 
-59.149274 19.132379 -17.998362 55.193105 15.112564 0.573600 -0.688139 -12.175872 39.367520 59.209038 -58.591419 26.600978 10.127287 35.128255 2.809306 -114.650966 14358 14102 
-74.964883 24.288666 -28.170145 74.794343 10.020874 -2.638700 0.510447 -3.840602 10.965085 18.725012 -53.372946 69.397578 27.776701 64.155844 18.061332 -155.708606 14359 14103 
-43.856136 31.763388 -44.674705 74.976114 1.964543 1.744386 0.411872 -22.329461 2.912931 -54.230194 -57.113410 58.587969 47.614239 77.898586 33.536457 -109.206577 14360 14104 
16.979925 36.156240 -19.484653 30.327603 -11.568593 2.626496 -9.460046 -45.576973 -3.050243 -54.983330 -55.102538 -10.714509 40.229579 34.466182 19.895032 29.259826 14361 14105 
43.209903 16.363705 -10.931733 -25.753541 -16.417981 5.814187 -0.410158 -11.874383 8.894726 -70.592065 -91.049017 -107.381072 25.183921 3.177721 27.543226 204.222559 14362 14106 
42.058049 -0.605496 -23.648273 -50.898320 -20.593023 -0.555279 10.329079 43.913263 49.043898 -70.316864 -119.612146 -169.695736 3.591137 -13.513030 18.751263 301.751480 14363 14107 
56.535406 -15.037666 -37.186259 -55.238980 -10.672218 -1.603919 16.241115 46.962521 -18.145362 -46.031858 -88.287017 -115.171949 2.877437 -11.893908 22.956708 253.695949 14364 14108 
36.243806 -12.250190 -15.984364 -2.887602 -11.396163 -12.666288 3.980488 14.960312 -17.817007 25.235669 -71.741212 -94.888249 -13.383068 -23.354659 34.623865 161.324661 14365 14109 
35.637496 -80.498753 -1.430950 29.670732 2.753988 -0.791551 14.139554 0.519484 83.736572 58.898424 -37.602801 -48.558960 -33.656486 -50.857595 -13.178904 41.219749 14366 14110 
99.112206 -92.343427 -34.346340 -10.598436 13.944998 8.167792 23.500380 -7.437173 0.862019 -48.109285 20.817376 49.958853 15.332229 -6.786108 0.236291 -32.311374 14367 14111 
126.932688 -18.956864 -69.777792 -55.405260 4.441628 -0.648136 7.403407 6.010328 -70.338028 -70.590867 61.209501 107.360729 26.766760 17.443450 12.330742 -84.182286 14368 14112 
119.531873 -2.664037 -77.774550 -77.263503 -3.920850 1.467254 10.580018 30.043796 5.909895 33.237029 70.022614 37.426810 -24.887152 -17.511090 -17.352791 -86.845314 14369 14113 
70.443252 12.037289 -53.999763 -56.378207 -6.012815 3.875902 11.124572 18.909770 62.931691 106.013558 18.552737 -54.786349 -35.228708 -36.613920 -23.193723 -37.675286 14370 14114 
23.149730 19.261741 -10.224681 12.274968 -21.947186 -9.001429 -9.599388 -3.913755 -5.483824 40.645278 -2.361323 -5.818317 38.835008 5.697489 -14.902463 -56.611848 14371 14115 
-23.764407 49.725500 57.968693 50.278676 -49.537905 -32.347801 -30.861870 -21.460886 -157.744180 36.417585 78.423832 72.027949 82.741611 31.161962 -10.910564 -132.118195 14372 14116 
-48.337766 53.671269 112.304072 -22.617582 -25.866999 -21.160054 -31.348234 -16.644706 -129.027581 99.795550 104.489067 92.547931 52.431881 7.667340 -26.224563 -201.679625 14373 14117 
-67.737008 -6.195904 136.690428 -62.235635 26.812517 4.040351 -31.527589 0.152838 0.015642 40.884247 55.944675 -8.722428 22.754347 1.889491 -4.904682 -107.861292 14374 14118 
-80.193266 -28.925465 128.455809 -42.772884 36.657226 5.238392 -25.186095 6.726284 37.366314 -45.027229 -3.076558 -73.640983 6.482989 9.562924 22.208403 46.124140 14375 14119 
-49.649329 16.116706 88.903886 -13.254363 -4.175017 -22.347975 -13.401218 -2.192689 64.213909 -97.032350 -20.455048 -33.265512 -22.247396 7.709634 18.607024 82.469739 14376 14120 
-36.318471 49.481526 56.793254 77.423568 -35.261938 -43.625538 -14.508635 -53.983766 45.661958 -4.839689 62.248156 -35.910119 -85.992065 -42.214582 -4.465856 65.512197 14377 14121 
-36.315540 32.824727 -3.875470 164.444815 -9.856175 -16.692447 -16.817404 -113.712507 36.809830 71.574004 66.396765 -62.080843 -113.241986 -71.849049 -11.534342 83.925622 14378 14122 
-59.437035 14.029438 -24.030502 151.453749 21.851904 10.292248 -21.661812 -92.497990 43.743144 15.152456 -24.107382 -75.790986 -63.752696 -22.027162 18.867410 107.915217 14379 14123 
-60.762670 -10.610258 -2.764984 29.690778 35.192188 27.573140 -5.130919 -13.187276 53.837621 -4.773801 -115.382510 -69.064386 -13.858817 35.155842 40.611719 73.474332 14380 14124 
-36.491502 -6.449005 -15.362805 -85.829499 50.066137 56.587352 -2.534341 40.013663 41.643707 10.945358 -115.576703 -24.934549 -0.053949 58.291172 40.203210 -10.518245 14381 14125 
-9.169009 9.170479 -51.718030 -134.800860 48.885650 62.513464 -0.201784 75.320090 -6.022657 3.815245 -61.632534 42.626205 14.104444 68.090626 28.305659 -89.286988 14382 14126 
-6.650141 40.674082 -70.170312 -109.344638 15.058192 39.426430 21.567916 69.438471 -15.562756 -33.286786 -45.379093 94.258678 2.726131 54.238812 13.210586 -70.205572 14383 14127 
-28.852992 44.185045 -46.175804 -29.683679 -9.327252 18.772883 26.301219 24.780580 -56.266281 -55.487139 56.914066 99.847247 0.326320 34.763891 -14.229278 -65.868826 14384 14128 
-49.208936 -0.534101 -53.676786 27.840080 5.066560 6.876048 32.614634 31.022501 -82.151468 -34.698786 166.121781 120.563033 0.003165 9.032666 -52.077922 -126.792469 14385 14129 
-55.022347 12.509718 -44.744813 68.894595 -6.160700 -26.985254 16.129837 35.378964 -62.711433 22.420608 126.767858 121.779440 -24.723214 -27.901539 -53.597267 -102.034453 14386 14130 
-19.446539 31.023252 -0.191266 74.833159 -14.591511 -46.393639 -7.517555 -17.715902 30.937132 15.803950 50.289022 -10.486208 -32.379275 -48.187347 -34.980726 29.003452 14387 14131 
16.478199 -40.925793 35.640802 88.086886 -3.323713 -34.189891 -15.700958 -46.065532 102.225786 -91.510586 -18.253739 -59.690134 -25.605466 -43.800638 -20.815813 157.450591 14388 14132 
58.143110 -125.781453 40.459695 132.564363 -13.256033 -36.653204 -23.283855 -32.192623 90.039409 -60.264264 -114.662200 -17.186049 -31.759338 -45.404060 -22.260927 201.497430 14389 14133 
66.662836 -126.533963 -0.352959 108.844631 -9.297256 -35.795093 -17.788073 14.259878 68.307071 52.308192 -107.299724 -57.993150 -55.514127 -59.677511 -14.394227 174.263477 14390 14134 
62.984799 -84.065160 -45.595169 26.346160 1.036225 -14.101304 11.985300 41.409150 10.213756 -30.074380 -92.648413 -86.469984 20.351000 23.391402 52.743674 102.492944 14391 14135 
78.266657 -25.005141 -62.598803 -55.502342 0.353143 11.059848 33.771772 19.654867 8.322558 -36.958868 -18.691255 -68.495516 40.859324 26.653938 25.659956 22.649863 14392 14136 
94.117411 16.425983 -27.234793 -88.512300 -4.754586 11.390045 20.191068 -21.622828 5.064490 47.082130 87.950562 -80.287373 4.591975 -29.256103 -22.535468 -12.610214 14393 14137 
63.391510 4.117848 -6.543068 -119.369481 24.268992 23.345440 28.065759 -17.277000 -43.956435 72.453482 95.209944 -60.485497 14.241368 -20.132181 -17.504954 -39.825726 14394 14138 
29.722435 -10.525025 -8.014670 -143.893375 23.213683 28.186667 42.049921 39.260364 -50.663491 93.981446 127.331704 56.387736 -24.146450 -59.861437 -51.632955 -91.396551 14395 14139 
58.164164 32.037262 34.378056 -96.166275 -36.927280 -15.762755 18.895515 5.381313 -80.211717 2.483035 84.489156 153.016913 0.005083 -31.052735 -36.618639 -92.111095 14396 14140 
-14.219264 63.611413 80.036525 8.380427 -59.083402 -39.956534 -18.752555 -20.016610 -108.963636 -93.001569 36.907843 149.659298 54.568097 26.891028 0.685724 -66.746785 14397 14141 
-100.581180 27.135713 52.995398 79.522669 -29.570073 -16.892394 -32.162384 19.552251 -114.946456 -67.518522 43.066802 74.933466 71.541271 40.052057 13.098730 -60.227347 14398 14142 
-64.562805 -4.998681 -23.410202 70.919213 2.602350 14.851025 -17.382083 21.981182 -79.819814 -32.882004 -34.347708 10.744962 77.706147 49.537547 22.909939 -13.849069 14399 14143 
-19.483312 -31.336833 -58.335126 44.479034 25.620423 31.760597 -6.423618 13.718834 9.559570 -41.141509 -109.200569 -74.014204 78.509129 57.437787 40.228209 38.621587 14400 14144 
-40.499684 -36.756635 -56.661065 -16.661913 68.312777 60.288698 22.332525 -0.354704 30.248080 -19.622159 -64.664080 -65.156463 54.375096 40.817058 22.740473 1.261995 14401 14145 
-73.711815 37.477032 -27.444863 -37.347159 44.815029 47.191811 24.189291 -15.169326 25.009407 -6.500269 -8.843796 19.737644 27.990297 13.786596 -4.531250 -66.648629 14402 14146 
-75.496640 72.733724 18.868151 -13.327473 -7.938532 3.099139 12.713008 -10.651377 55.109986 11.525326 -31.223103 -5.380206 26.831920 5.123879 -0.467762 -61.520042 14403 14147 
-58.898942 33.038161 70.519909 -7.291616 -25.666413 -11.772971 4.293063 -4.221190 85.046953 30.686798 -63.424673 -71.178460 13.701054 -2.709605 9.402583 -1.524648 14404 14148 
-5.951499 50.025751 105.790521 -24.859415 -61.686344 -33.195142 -33.154276 3.030404 83.550589 58.764269 -43.109763 -134.647571 -7.622060 -10.700114 17.430318 36.334332 14405 14149 
60.890828 14.746157 44.885805 -82.079149 -44.538515 -11.665457 -19.467812 37.228143 28.462746 67.666442 5.168544 -70.566814 -13.609138 -17.480161 5.653666 -5.295285 14406 14150 
115.122084 -64.674891 -8.206848 -80.621391 -18.806311 11.625001 9.014003 36.548353 -12.636208 22.285507 1.994349 114.834534 -16.436051 -16.348399 -12.184034 -81.509698 14407 14151 
122.217458 -38.694957 -6.324401 -20.840264 -31.186753 -15.994279 -6.753634 -2.423170 -36.799353 22.194082 22.053204 151.959381 -28.050157 -21.835597 -8.983545 -100.538015 14408 14152 
85.293650 17.310590 -4.759690 2.811165 -20.227120 -23.997667 -29.054696 -27.376232 -76.048036 -0.040717 105.915454 112.560223 -26.571965 -24.839890 -10.081588 -80.893481 14409 14153 
24.853720 40.611197 24.497781 44.264142 -11.659391 -25.556286 -38.194956 -58.816207 -68.373584 17.358347 114.167263 107.229592 -33.876889 -28.282591 -38.462019 -69.760120 14410 14154 
-24.925936 18.256804 14.333989 103.899163 4.212175 -23.491754 -31.036203 -61.248237 16.956598 92.110031 76.654657 -57.564076 -52.167363 -30.424199 -37.468059 -8.097589 14411 14155 
-34.866873 -15.176101 -58.770170 76.827961 46.753257 5.240332 5.073219 -25.081624 68.068525 48.501099 41.729934 -140.404041 -48.033121 -11.007805 -7.670076 48.815485 14412 14156 
-52.247718 -27.230368 -92.264089 27.817005 67.304059 30.556799 29.849497 16.214815 34.851526 -7.002692 -43.911846 -38.964073 -34.247021 14.804870 12.712409 61.756825 14413 14157 
-55.104634 -19.393529 -51.269256 17.656973 42.758074 28.229757 15.267167 21.855448 7.150709 4.183255 -83.981057 -26.108072 -19.761832 32.694717 26.245681 59.576599 14414 14158 
-47.668586 4.201106 -17.030104 10.782295 17.811949 16.088543 9.540990 6.273806 -2.793743 -18.880843 -42.539779 -24.379272 -11.903009 34.819702 30.596994 35.079951 14415 14159 
-20.024003 37.362470 9.275247 -53.378123 2.907434 -3.661842 7.698362 19.820454 -1.456652 -26.320486 -49.030746 -63.489054 10.691150 35.186161 42.406473 52.013153 14416 14160 
17.301009 56.134094 10.150166 -69.905068 -9.388096 -16.728598 -1.447993 13.884486 19.715701 22.074299 -40.943269 -77.374917 0.768645 0.388614 21.623800 53.747127 14417 14161 
32.198462 19.340914 -50.211675 -24.629939 -5.335588 4.520230 5.134597 18.982999 22.820745 46.907992 15.424214 -23.471801 -42.971538 -44.480961 -16.108864 41.880213 14418 14162 
25.001961 -19.717520 -47.394164 -1.293842 7.049112 14.887053 11.553867 9.913533 1.596595 8.108385 -40.301985 -0.460563 -8.600525 -11.615221 -3.622589 54.895903 14419 14163 
-3.430119 -16.636693 3.815118 62.849695 -5.133481 -14.204206 -0.718298 -26.542016 8.182002 -46.044951 -120.504549 79.740778 17.390337 13.965752 5.138504 42.132127 14420 14164 
-20.717917 -13.122001 28.296725 87.451440 -35.661964 -30.711756 5.272681 -20.807208 39.500111 -54.798334 -84.529407 105.444474 6.777161 0.644212 -10.165298 -2.872918 14421 14165 
-33.678580 -30.006776 58.797428 80.984326 -28.979561 -17.688150 10.407400 -39.836088 16.686437 -29.952684 3.263004 153.452315 -0.412803 -14.163579 -31.808517 -97.064173 14422 14166 
13.313111 -16.960215 67.877922 34.367884 -20.014011 -25.055123 -10.262406 -43.267162 -67.404674 -12.504970 79.967717 242.977046 -8.057749 -34.473288 -47.746625 -152.757457 14423 14167 
35.671166 14.312420 48.210110 -35.478567 -12.494668 -17.489805 -7.698089 -25.032567 -139.934377 6.357245 127.819319 97.475324 27.310096 -16.356266 -19.695642 -82.975700 14424 14168 
20.103280 23.923855 20.175512 -30.503537 4.170579 8.158348 -14.917218 -31.110819 -78.843427 -34.943412 68.160459 -78.248217 52.591686 13.373271 19.134556 38.775084 14425 14169 
-2.926023 30.935337 9.247844 -8.282775 10.288940 8.392985 -33.376725 -14.279583 32.619100 -70.179172 -3.120577 -71.651628 25.635053 -2.195670 1.418557 87.474338 14426 14170 
-97.440662 42.000553 18.147156 -12.477237 28.593125 17.456393 -10.893847 14.614519 40.878355 12.859660 27.275583 -56.888618 -3.934489 -24.412724 -28.677850 32.900082 14427 14171 
-122.125493 64.550956 6.281627 -77.333796 35.378658 28.191630 21.611639 43.444780 32.599785 28.912750 -21.761411 -90.210206 25.907397 8.859191 3.627950 12.064544 14428 14172 
-78.679353 57.197160 -24.391314 -129.127449 40.526877 43.797418 42.266043 48.410618 13.095338 -13.159718 -98.657974 -148.184688 71.191557 59.996096 64.035656 51.683732 14429 14173 
-30.440838 22.101414 -44.103804 -105.839895 32.921607 46.332599 45.399332 33.629585 6.708229 -22.702111 -56.323054 -191.014548 43.302894 54.455494 83.448457 82.124640 14430 14174 
32.615270 -2.437188 -31.755899 -128.070605 10.989562 34.944776 43.483854 40.230230 53.733878 13.135961 -16.093900 -212.013857 -10.775466 13.712895 58.947937 99.352553 14431 14175 
79.668681 -102.717149 -20.545814 -72.297455 17.526719 28.642672 34.919087 34.803259 94.922239 77.841546 -59.149757 -172.275600 -29.714029 -6.550365 24.229475 70.696490 14432 14176 
100.884879 -150.565838 -34.454148 99.240844 -11.366461 -12.302312 -3.809189 12.372225 63.825612 12.485583 -95.617724 -39.934899 -20.070245 7.722917 16.695901 54.892855 14433 14177 
82.455319 -33.418208 -21.847873 167.813310 -70.752118 -55.837927 -48.033963 -20.378540 -19.154615 -127.620885 -20.821194 106.832666 2.526926 20.032109 12.639381 25.565614 14434 14178 
28.956420 5.623377 40.699214 208.890969 -82.926026 -74.245652 -73.975521 -53.022782 -54.266227 -132.789503 76.608445 215.356090 -14.699593 -20.353881 -26.932939 -42.922392 14435 14179 
-21.139327 -21.510619 29.808840 166.900867 -45.331007 -41.502518 -49.043685 -18.182552 -72.613841 -13.219744 90.200787 205.565740 -36.610070 -56.143618 -50.649583 -66.529672 14436 14180 
-5.413996 -14.437121 -32.469807 20.807233 -2.106323 8.619187 -2.781493 27.782319 -57.228591 25.733349 77.440035 111.555112 -17.189838 -40.884529 -42.638967 -56.786570 14437 14181 
23.536007 -1.706844 0.952945 -51.012358 -2.966906 -3.759297 -0.590498 35.546950 6.499192 39.746698 53.047006 31.384015 -28.857350 -44.050471 -37.123558 -20.645533 14438 14182 
0.636163 48.271254 27.859879 -35.966894 -17.205132 -34.005323 -13.964635 24.374689 59.154214 63.841162 4.318319 19.472969 -52.114140 -63.833566 -47.611706 16.772747 14439 14183 
-31.210487 51.406600 8.214550 -8.098376 1.187665 -23.448493 0.989760 0.958780 54.403067 11.272844 -11.594902 49.375167 -27.805400 -42.561537 -48.484859 15.395620 14440 14184 
-31.524336 -9.722138 -6.975372 -6.794805 43.644803 13.854234 28.324897 -30.807283 -17.455408 -30.853970 6.470847 62.863049 21.876982 11.445706 -24.758189 -29.589017 14441 14185 
23.123191 -75.001749 -16.617270 10.684889 68.628934 34.520283 16.839417 -62.177694 -86.617240 12.373057 7.386567 37.305310 38.046942 34.796853 6.279567 -49.571057 14442 14186 
83.096016 -90.243549 -6.379036 -18.309056 47.720842 24.795692 -8.512199 -32.168710 -56.791947 66.165416 -22.920036 -106.285067 43.208796 40.710907 51.152468 -15.240537 14443 14187 
95.791717 -48.020753 -1.823887 -63.761782 17.529769 6.223233 -9.717525 3.779228 73.273371 12.395117 -27.403687 -111.507962 7.707635 13.595418 28.314515 3.625593 14444 14188 
63.921708 -20.159106 -21.383224 -78.221132 31.645173 24.518790 3.929177 -4.251385 75.027669 -46.126756 4.412167 35.113599 -40.986943 -22.924205 -12.561004 8.045474 14445 14189 
-13.727541 4.064532 -20.717341 -70.436770 46.276405 44.904268 24.215783 -14.579335 6.448377 13.569881 21.479928 -39.372252 -31.120123 -4.929547 10.187649 23.736087 14446 14190 
-53.286486 43.454799 7.885536 -42.609589 -0.320828 18.431742 23.123719 3.321108 24.807143 46.183392 9.577332 -87.342824 -16.582069 17.114073 11.709538 -5.466585 14447 14191 
-62.633239 65.524500 -19.618639 -62.193065 -16.952795 24.555956 23.586861 47.730421 -28.055926 -35.819587 44.995135 16.692049 32.947810 51.626906 5.521741 -87.908127 14448 14192 
-67.192406 74.025889 -59.875346 -87.312334 1.199146 36.812682 39.382276 62.960094 -62.290708 -12.409759 108.737511 66.020860 17.118390 29.328003 -13.371770 -133.132527 14449 14193 
-42.232893 64.571840 -32.022524 -60.197578 -3.668673 10.269455 29.474759 33.805614 -34.473838 28.429508 60.892607 44.713915 -10.557265 17.601210 -10.260320 -96.345817 14450 14194 
-20.826704 30.663313 -5.013986 25.213028 -12.439667 -9.808287 -6.455701 -1.331996 -15.081401 20.420126 7.335508 23.808040 -12.578663 20.836420 -0.457459 -44.282571 14451 14195 
0.186241 20.063680 -9.905412 77.611508 -32.056810 -24.341287 -30.377663 -1.180257 16.039325 9.673996 18.778102 62.859688 -45.920325 -17.381301 -12.645979 -31.403506 14452 14196 
-22.314754 18.188496 45.489688 94.269506 -51.650139 -37.913032 -39.625870 -6.443895 -33.595802 -45.174046 5.480389 73.738408 -16.508565 18.255085 9.874088 -12.069556 14453 14197 
-46.284595 -22.828015 182.530868 177.246344 -80.949868 -77.205269 -63.104067 -69.405398 -68.610083 7.555315 -28.787788 -0.271367 7.472287 46.596341 22.056945 13.988351 14454 14198 
-42.840067 -42.583601 179.164116 217.166407 -71.115377 -76.673796 -66.931051 -96.186631 -22.890875 45.441482 -63.544638 -50.607802 15.093505 36.109884 4.587049 35.811395 14455 14199 
-41.691232 -35.427010 50.539581 140.064999 -22.510615 -22.141325 -32.932902 -35.901497 30.787328 53.944167 -84.747578 -61.467479 6.744936 6.088846 -17.191233 65.841014 14456 14200 
-1.199350 -24.359683 35.572914 14.239103 -4.194089 -4.059673 -11.956272 -4.042950 98.969208 55.820669 -98.629704 -97.844622 -5.985014 -9.447328 -6.681732 63.798523 14457 14201 
33.441418 -2.357859 34.200082 -45.529137 -1.024108 -15.449646 -3.809663 0.528912 112.601508 -11.565022 -111.746561 -87.195487 22.518225 22.298427 14.177826 38.911083 14458 14202 
45.135093 1.184770 7.337082 -90.322287 9.143281 -3.971246 16.349632 15.143676 78.963334 -6.700962 -76.631702 -60.105646 47.437836 29.184688 5.927468 -18.075015 14459 14203 
76.446697 32.016433 -30.386547 -142.526780 11.034702 13.786797 19.069196 20.559502 16.754073 32.767169 41.947081 8.786721 39.248075 -3.487386 -29.736370 -106.279362 14460 14204 
78.505686 27.619910 -63.881700 -114.866020 1.818038 4.917382 18.299177 47.587526 -29.436818 10.491299 113.195361 58.851426 11.331107 -24.913468 -32.775483 -106.743424 14461 14205 
30.736541 -10.928777 -39.276785 -76.266677 5.616902 3.731770 24.909595 61.477432 -54.777729 -36.150350 17.667393 13.789946 6.511278 -15.651837 25.330118 43.281181 14462 14206 
-38.913775 -10.058352 -10.354557 -13.615188 18.530654 10.765238 14.630068 29.015913 -45.812068 -66.913162 -76.585224 -49.932149 -5.624898 -28.277721 48.477520 224.667701 14463 14207 
-71.228094 -1.182822 -1.758531 6.249773 24.379556 7.318552 16.936091 19.285475 -42.039211 -49.389937 -97.297983 -74.696701 -31.248569 -31.321789 43.598556 282.395634 14464 14208 
-55.369337 14.967085 10.999318 22.972817 2.373194 -15.269090 5.511411 13.814601 -81.748432 -52.019626 -84.848306 -38.062826 -22.603562 -13.110881 54.129588 238.264045 14465 14209 
-55.934193 34.212532 9.226312 87.354637 -9.688424 -26.002443 -10.821507 -28.346914 -12.537632 -103.369696 38.453339 -80.345271 6.513126 -5.312443 39.542589 117.055988 14466 14210 
-34.778843 5.760142 -33.466201 112.907253 4.688954 -9.183547 -4.889333 -41.038425 -9.956173 -38.493800 163.263106 -70.373140 17.205186 -9.562706 -13.333085 -38.749387 14467 14211 
14.171953 -27.078008 -58.813681 51.741260 21.672229 20.770768 3.676310 -26.140830 -15.493929 103.690145 139.314690 -24.244598 -11.446832 -37.747406 -51.954926 -102.117143 14468 14212 
24.857508 4.996510 -61.376298 -32.065895 28.993441 35.144608 9.985370 -10.535245 -5.564654 77.328587 9.066222 -19.253445 26.224625 -3.333826 -12.415384 -72.052125 14469 14213 
11.618023 -10.971710 -43.598512 -20.948513 24.643076 31.531188 6.158565 1.567883 -38.549110 -70.320940 -53.813014 96.017134 70.128595 25.108986 29.503829 -58.075481 14470 14214 
-1.230944 -61.389000 -51.552766 -42.795958 41.852727 55.900308 30.721021 28.494612 5.102980 -73.912234 -20.559215 161.253935 22.330277 -17.417723 -4.247985 -72.550035 14471 14215 
-32.952812 -47.468624 -40.610105 -52.319798 51.561186 64.711219 31.192218 25.886717 46.275462 -17.419034 -1.778416 111.200716 -14.259493 -36.432736 -36.935745 -50.650754 14472 14216 
-13.612505 3.660320 -19.397535 -58.068070 33.886040 40.041040 10.058393 3.432316 86.338051 -8.532731 18.760960 70.078606 -36.081500 -42.996669 -47.734097 -39.832621 14473 14217 
56.434436 19.067790 -44.324710 -119.641845 20.390127 27.081330 27.184622 13.808249 90.158975 48.014607 -1.519262 -1.097737 -42.932477 -33.876402 -36.838461 -21.909243 14474 14218 
52.387753 24.063508 -29.201670 -111.556412 9.337876 22.719291 20.461567 11.788086 66.667301 73.698801 -65.570590 -68.916252 -23.519940 3.988984 8.920725 4.730972 14475 14219 
23.768279 8.203178 -15.269693 -55.979316 -0.063612 15.591642 8.083477 15.666046 27.492376 24.667921 -71.172470 -64.746936 0.126595 41.810828 34.480873 7.340813 14476 14220 
44.756735 -54.118832 -21.210235 6.807587 2.299127 6.870920 11.603022 2.991677 0.427601 5.568765 -32.961614 -45.887103 -5.872383 39.244274 30.916785 8.563676 14477 14221 
71.911494 -42.382327 19.118917 61.084374 -38.123758 -34.234765 -10.228534 -27.145402 -14.984447 17.336924 -11.222982 19.933662 -23.180864 13.815114 8.486073 -10.183481 14478 14222 
79.765149 13.010835 40.042986 38.652445 -79.744657 -59.561435 -17.461167 -14.704156 -11.422926 9.269887 -2.751462 42.337271 -24.558071 1.412591 -7.820661 -6.466629 14479 14223 
75.024408 23.916011 6.303828 -28.342546 -55.429797 -37.196807 -3.607136 19.332039 -8.594906 9.697573 51.149319 26.425790 -44.902261 -22.904627 -17.769776 6.898888 14480 14224 
66.014268 45.663066 1.555830 -54.342013 -52.529598 -40.110405 -15.844631 49.593482 -26.675480 7.484834 63.300360 7.422622 -42.717530 -21.925723 -7.098000 20.208917 14481 14225 
53.970026 21.625549 9.223518 -67.082179 -30.648206 -23.056392 -6.598113 42.565798 -26.794589 -11.470185 66.220487 14.911688 -23.862515 -2.797626 -10.543033 -5.664227 14482 14226 
11.971866 -18.087703 23.109556 -43.233404 12.805181 12.200095 9.357315 -8.122906 -14.241513 -40.372817 68.822123 65.847897 -7.813361 16.981458 -21.628585 -67.595203 14483 14227 
-50.669148 43.926220 31.754808 2.181526 6.373789 0.430241 -12.879567 -21.117868 35.533106 -25.815436 -39.495235 72.112871 7.396230 30.583460 -5.472533 -74.842463 14484 14228 
-131.196879 40.783343 19.883198 61.855875 19.264623 4.745165 -11.087506 -4.247819 29.057159 37.294312 -62.400490 86.278244 -0.101898 7.039253 -20.053812 -77.112768 14485 14229 
-196.728680 32.981617 30.447228 133.300704 20.699347 9.299766 -4.804716 -25.195265 -29.309367 37.086715 -41.767258 49.695624 13.279216 15.379180 1.554633 -45.918742 14486 14230 
-145.683486 75.888216 26.025547 160.438413 -11.903684 -20.148362 -18.565334 -66.051310 -27.050506 -2.500656 -18.293256 -73.097413 31.204962 34.976926 36.697150 18.062792 14487 14231 
-32.311956 8.443169 26.631194 181.751202 -8.764335 -25.426288 -30.380910 -119.942076 -15.629619 7.241387 45.998895 -110.133406 26.915056 23.136656 18.718668 3.752363 14488 14232 
8.559174 -67.014824 1.109789 165.089726 17.127779 -3.781963 -35.975824 -85.113857 -21.319300 20.790342 22.510492 23.777866 10.465795 4.975741 -16.267053 -44.933883 14489 14233 
52.966728 -115.644058 -48.835888 54.520160 37.821609 20.927258 -6.843699 5.087891 -17.299116 48.855313 5.856451 75.568201 1.986667 -11.851432 -36.826552 -66.289534 14490 14234 
92.056903 -89.102513 -19.877798 -57.274796 51.939273 26.843252 -0.676556 -3.907763 -24.159307 69.792595 2.461520 37.678467 32.034242 -3.326728 -27.632075 -86.848714 14491 14235 
42.013147 24.332551 0.981894 -151.618227 44.852042 17.486444 -7.910610 29.862760 -47.694974 29.776342 57.618910 -10.356915 66.547047 15.247808 -4.248076 -106.890142 14492 14236 
14.026170 36.979069 -10.880339 -140.790505 24.953924 9.875699 13.478526 52.357456 -65.522898 11.939239 123.182275 -28.412133 72.473333 17.601558 -0.361826 -130.899547 14493 14237 
3.421017 -5.395798 -31.946401 -50.734491 23.610742 17.628491 18.217735 25.198705 -47.076045 0.803535 78.975742 -0.375020 59.134931 10.823495 -5.660604 -96.626034 14494 14238 
-3.881424 -27.412468 -29.675887 -15.199570 12.472757 19.995376 9.317904 34.383311 -7.442925 -35.468606 -3.116984 -46.951771 36.652980 0.526439 14.435567 41.365301 14495 14239 
-2.782742 -44.775261 16.983204 28.127827 -14.022103 3.545806 -3.740721 16.663989 6.736167 -75.959066 -63.457689 -67.021324 -0.254044 -12.033074 43.681648 168.307382 14496 14240 
-5.114808 -14.859938 16.131174 11.851057 -14.266893 -7.276614 -5.262167 18.798190 -14.599732 -86.449587 -28.647161 -63.046357 -19.682194 -11.388180 39.710450 184.102760 14497 14241 
3.232201 26.176797 17.922707 -17.932822 -27.164702 -25.336907 -6.111621 29.214346 1.607198 -56.379326 3.508500 -43.268160 -12.075470 -11.817478 4.098125 114.326611 14498 14242 
9.500268 39.016095 20.553996 -74.196754 -35.283602 -16.519339 10.721288 46.208049 68.800321 0.356291 1.324188 -86.801722 -42.123939 -42.985388 -9.210968 110.641216 14499 14243 
6.793240 36.706303 10.599988 -102.370462 -18.165773 -5.527241 34.182550 37.781395 92.539514 45.687254 -57.906649 -167.598203 -65.129861 -46.392525 8.857661 189.942809 14500 14244 
-6.160529 23.404000 0.701691 3.104730 -24.369224 -22.407836 18.038518 7.688650 17.454030 16.951015 -116.180437 -109.839718 -31.832519 -7.919657 32.771926 198.595358 14501 14245 
-43.105509 28.912073 12.757449 142.252548 -46.772207 -48.482892 -29.486396 -16.075065 -40.288245 -31.017855 -49.624916 29.945055 -21.842094 -10.805182 17.374508 106.258730 14502 14246 
-75.633641 23.465845 56.250024 220.599806 -47.218147 -67.010892 -59.375476 -51.077519 -12.828255 -69.870779 36.676089 105.630854 -13.912603 -17.824652 -9.296841 -18.573811 14503 14247 
-39.499658 -35.627402 38.291701 117.076789 -6.248211 -21.828010 -19.598602 -32.566607 42.827813 -55.968769 38.757989 24.461675 14.171164 3.322001 -4.753529 -62.818344 14504 14248 
32.513416 -59.632412 3.672070 -7.167523 7.276237 1.715735 23.269373 -1.646897 74.914804 5.073019 -17.720556 -10.266027 11.986368 -5.361859 -11.456072 -47.169676 14505 14249 
44.360965 -46.825978 -7.028162 -24.443450 -2.652345 3.224800 32.036005 1.328166 67.458573 11.566708 -72.150456 39.113905 9.455816 -9.745141 -9.462420 -36.236985 14506 14250 
12.247552 -18.743484 2.875953 -44.314950 -5.765582 24.459322 21.250317 7.990872 47.805382 8.507510 -107.852195 41.854191 15.500157 14.818604 4.634331 -25.267981 14507 14251 
20.098400 13.563763 -24.164303 -54.645947 -1.520661 29.032870 1.988246 15.647632 -17.394814 -3.997919 -66.925963 83.627123 13.270765 30.178045 3.606803 -42.364039 14508 14252 
25.858733 13.977696 -84.428177 -38.445080 26.769484 45.826072 -6.922181 17.363453 -117.037846 -28.700098 52.301700 108.334639 14.028175 30.189156 11.747421 -70.863148 14509 14253 
26.248683 42.069028 -93.815596 -42.530047 30.774505 34.771433 -3.113509 5.595502 -107.047261 13.762114 136.388850 134.454470 -26.299110 -17.700074 -25.622287 -107.936702 14510 14254 
8.887152 65.622341 -64.463870 -22.684268 16.220393 8.076102 4.219379 -15.877230 -2.568616 42.059539 93.926756 144.554418 -73.967626 -58.708722 -64.586552 -80.709196 14511 14255 
-34.719189 71.024893 14.721999 8.342392 -4.495062 -6.396477 -0.156645 -48.321911 23.311641 16.052378 -2.519162 23.901869 -36.201248 -11.578167 -11.977740 -0.989571 14512 14256 
-77.944793 45.351281 106.552325 7.181512 -20.698758 -14.307273 1.942801 -48.077096 45.347994 35.506743 -17.041342 -137.317971 -2.226951 13.764905 20.551473 41.415147 14513 14257 
-78.175682 -13.186710 123.390101 -26.954240 -4.701749 2.179834 10.969574 -13.521127 40.520310 50.399460 27.368953 -200.938293 12.880508 16.346269 18.407293 35.015499 14514 14258 
-36.163286 -8.683266 59.568166 -99.212312 37.547326 30.179372 17.356536 -0.592536 -5.870198 -7.635766 9.699180 -82.514925 44.855979 40.866839 16.254817 -15.655927 14515 14259 
-43.191582 18.978788 9.666310 -67.412454 49.858324 24.781623 -9.477009 16.796000 -6.244238 12.530328 17.116768 26.069560 19.673157 10.487460 -19.064997 -60.568037 14516 14260 
-63.011344 37.488791 41.331805 4.880910 11.037628 -7.194822 -43.294236 18.761267 -9.846968 79.129513 11.285105 31.312929 -15.620424 -18.994659 -25.388273 -51.877223 14517 14261 
-31.685136 50.216418 51.477890 -45.417634 7.234917 3.622780 -37.584474 2.135238 -41.492504 9.524960 -15.804962 68.720491 -2.564267 2.066667 0.768828 -21.219213 14518 14262 
33.563739 -2.724950 -0.610667 -75.552861 31.449573 30.548792 3.251491 -19.925117 -59.323491 -42.929453 6.778259 69.906005 6.332169 16.120448 7.875112 -4.759050 14519 14263 
89.164653 -93.172238 10.563028 -50.474819 19.326291 26.973276 41.360352 -43.740543 -26.440656 -45.887124 -34.384009 20.389582 12.165656 29.716918 23.025751 21.413881 14520 14264 
146.750859 -126.542710 -2.654095 -52.245612 -2.176501 16.560521 33.652374 -13.344836 -8.414632 -41.728355 -2.888183 5.475898 10.289354 21.135132 7.103623 9.027164 14521 14265 
160.863283 -45.764955 -70.130301 -80.838427 -26.219840 -5.209832 14.799467 52.500606 41.138377 7.038697 33.169749 -79.307842 7.010909 21.216048 -15.139523 -15.126415 14522 14266 
81.745160 -4.836008 -72.105686 -4.638028 -45.420007 -34.915980 2.354191 77.816358 71.410354 7.719863 -24.726546 -135.739488 22.846433 54.177540 12.923985 -8.612142 14523 14267 
-6.400299 -62.740870 -77.972180 137.043585 -21.480623 -21.282887 7.588569 45.244706 38.334548 14.909364 -5.358027 -22.921372 -13.805777 10.756296 -0.277804 -21.637227 14524 14268 
-25.763427 -64.715657 -77.495126 182.239214 -12.070922 -11.587198 0.837688 8.555429 25.356361 83.593692 36.953493 34.420328 -62.358482 -43.905561 -35.133982 -38.925849 14525 14269 
8.892095 -38.495568 -17.360104 170.268130 -37.962938 -42.310474 -30.306613 -12.724527 -11.591519 103.810014 43.043107 53.305373 -63.504629 -46.934226 -41.894584 -36.233536 14526 14270 
6.142606 -18.621034 34.888259 89.676041 -29.527128 -38.228496 -32.815318 -11.514931 -61.075529 -5.923586 67.657945 136.769678 -29.905032 -37.454838 -34.187983 -35.880655 14527 14271 
-25.014301 3.199276 41.658533 40.847040 -12.567384 -26.533493 -18.585691 -3.003980 -41.850045 -89.816992 42.797657 143.872582 -1.214865 -32.334810 -7.924997 -13.528530 14528 14272 
-34.258004 33.745370 64.588348 56.589271 -21.015049 -45.770936 -23.336472 -30.542529 22.422355 -80.866138 -23.495854 85.752470 6.056382 -36.994943 7.579606 19.546123 14529 14273 
-36.860314 67.475335 85.740477 34.891069 -21.578571 -44.683392 -34.358073 -50.626531 32.337055 -6.365273 -20.621873 56.059554 -6.776533 -54.243283 -15.475467 15.085820 14530 14274 
-27.471402 71.339446 38.968334 -45.724925 -3.960488 -9.611456 -6.530965 -17.008543 2.497599 34.331934 -53.804804 -16.494950 9.261099 -20.255520 1.305201 43.159442 14531 14275 
-15.467278 41.581431 -19.201177 -77.487938 10.636922 21.985318 25.562642 12.390081 -13.891824 -4.312071 -126.431469 -117.233996 61.376257 52.575735 54.111589 93.805779 14532 14276 
-21.419924 31.116657 -59.527169 -54.057950 22.454452 32.348978 30.140363 18.944593 -8.168710 -22.251855 -106.617536 -119.485171 56.231971 47.919441 51.444846 100.927016 14533 14277 
-18.174593 56.527851 -116.238535 -100.848282 43.420271 49.623394 42.860142 42.829753 -0.538511 -38.680696 -50.159195 -34.864235 38.990355 21.554528 21.279359 42.418396 14534 14278 
0.625104 43.649012 -124.800740 -87.866882 37.526327 40.770961 44.038403 46.057813 -10.844465 -5.472502 -0.186816 70.963835 7.994748 -10.871982 -15.115916 -36.466902 14535 14279 
6.948235 9.616532 -47.808511 15.023106 7.628303 -0.883725 11.780163 -2.304102 -0.975171 45.309051 -25.822694 62.512575 -0.179824 -13.595167 -16.281934 -50.966835 14536 14280 
13.484504 -28.190693 1.755276 26.998549 9.578881 3.623787 0.529064 -27.779368 -21.664480 78.219831 -16.921335 18.687627 13.633684 -7.580132 -17.979081 -46.396114 14537 14281 
21.188771 -37.921997 4.232627 -53.276790 24.314252 26.403507 17.520489 -2.460859 -62.130216 13.823329 87.734421 -25.326592 20.996818 -0.516681 -10.114503 -24.466576 14538 14282 
-13.828505 -23.974147 27.220085 -17.787298 19.143961 15.371869 5.221923 -11.367888 -52.910845 -90.486876 71.912826 -95.095472 42.819064 51.853983 42.018621 29.888699 14539 14283 
-83.444498 -33.778535 68.359979 31.367475 27.600229 16.280912 -4.974757 -21.410805 -1.380455 -52.000772 38.784643 -100.076122 6.839777 39.141379 35.256655 33.434894 14540 14284 
-99.683751 -17.029943 65.896895 -42.858855 40.496609 33.846817 18.459167 0.873061 79.082168 16.757191 -0.617621 -91.235709 -16.057041 12.254598 8.264106 -8.447692 14541 14285 
-26.474188 6.459548 21.143396 -111.144589 38.779899 41.363348 36.063718 -6.191132 108.683749 -22.359971 -40.056391 -13.161489 -15.611378 18.384097 0.597252 -36.475869 14542 14286 
86.866683 17.816751 -2.820444 -112.188376 6.325606 6.616763 9.964589 -12.581572 80.195171 -62.235911 -0.010856 54.021165 -29.078167 16.654688 -3.434275 -56.111815 14543 14287 
114.842940 13.392585 0.439822 42.382269 -42.474559 -57.126294 -51.090962 -20.365801 84.887573 -21.310264 5.625512 67.534690 -44.013688 -14.156171 -20.208387 -58.359264 14544 14288 
71.590174 0.434066 -15.134675 152.761386 -49.123481 -64.422646 -68.159572 -27.945253 49.926187 -1.623725 82.088131 30.202985 -47.281467 -47.499042 -41.173451 -24.639618 14545 14289 
56.469769 18.470715 -34.741436 88.989198 -44.402214 -38.617300 -41.819001 -4.349731 -32.175406 -9.403034 139.858944 -67.005759 -29.861255 -39.013382 -19.456401 57.056293 14546 14290 
27.146222 35.098409 -17.993550 40.267026 -47.264322 -26.660940 -21.101565 10.508721 -14.665022 -19.743995 27.537964 -47.928585 -26.712903 -32.631227 -1.736762 115.880530 14547 14291 
-6.907927 43.301846 6.573850 30.395499 -49.304283 -20.220516 -6.595811 2.757342 -82.748911 17.153254 -36.641807 33.894338 -17.927686 -17.247841 10.229659 93.288994 14548 14292 
11.678531 25.966707 15.393986 15.932464 -47.897829 -9.716694 -5.076499 -6.280667 -77.560771 51.237915 -38.679880 -43.820503 -9.023120 12.038991 35.196576 70.610792 14549 14293 
23.455443 -5.982179 22.076727 -33.996860 -35.414764 9.640950 -4.771079 24.991763 -12.467063 64.816115 -43.434253 -102.136153 12.324501 30.266402 25.928485 24.701965 14550 14294 
-50.907956 -17.786093 35.328125 -13.153558 -18.359456 16.008350 5.536334 43.334254 -91.865496 63.215009 -48.449497 -28.211240 38.708131 41.268241 22.860307 2.474545 14551 14295 
-82.034479 10.373473 6.956529 55.731752 -14.664383 -1.332418 -2.414707 27.384232 -24.882317 27.995943 -65.459721 6.795833 0.604473 4.688094 18.417082 31.840613 14552 14296 
-68.879580 62.507712 -40.029923 75.440658 -19.032182 -18.744915 -15.725825 24.464053 -13.759318 23.378762 -21.615537 30.452537 -36.789255 -27.474616 1.879787 43.927641 14553 14297 
-104.550463 56.382746 -49.937323 96.480967 8.097229 -7.414887 1.241810 -0.300079 -21.730303 -21.107823 -29.596216 -1.818458 -9.539543 8.398335 21.134726 54.259281 14554 14298 
-95.370975 13.310406 -27.380847 73.196211 44.013048 9.264316 7.522614 -24.554772 18.470401 -61.173838 -27.074116 -76.891541 43.865783 57.544029 26.943318 18.315965 14555 14299 
-32.398486 -38.092541 20.612879 32.353446 64.483718 13.584931 -1.700020 -58.843927 32.746099 -38.211340 -1.817224 -80.540069 63.038223 61.747234 18.929119 -55.892042 14556 14300 
-1.055553 -100.387792 75.518734 27.356892 58.759892 13.891534 -3.079877 -71.003830 58.530952 -7.924277 2.164167 1.608018 50.815903 35.728989 8.587938 -149.511689 14557 14301 
11.640545 -142.557220 61.424440 -0.150354 42.077106 21.728912 13.079157 -7.242586 20.290399 29.075855 23.564040 66.156399 30.501773 13.059927 -9.714258 -172.934136 14558 14302 
20.228826 -138.950833 -3.028958 -41.170053 38.838984 41.520249 40.971174 41.590611 0.840784 51.818459 43.297285 88.777146 -13.973295 -27.062751 -31.403807 -112.293822 14559 14303 
16.097396 -66.027232 3.426498 -11.506990 3.992788 20.204927 23.279436 10.533177 -3.875135 46.767257 74.859791 64.332807 -46.486847 -65.583216 -54.631664 -15.382993 14560 14304 
38.815861 9.018149 40.169832 28.909047 -39.366490 -28.385117 -18.659204 -30.502079 18.664660 62.928942 47.666325 -21.778868 -50.102150 -79.035333 -68.936899 90.593322 14561 14305 
40.513901 17.265803 36.383767 18.181493 -46.465607 -33.982008 -21.654933 -10.242415 35.696336 67.583592 -1.510416 -102.346791 -17.108005 -35.687350 -43.819737 97.192372 14562 14306 
40.301650 -27.102635 -8.809871 -31.944259 -0.194236 13.486274 5.913978 8.349100 46.287025 36.293872 -57.271690 -110.284698 -1.578589 5.420381 12.360661 68.773039 14563 14307 
36.981977 -54.499520 -37.954286 -118.259420 63.816260 57.112098 31.935133 20.867758 -16.966364 -41.769719 -27.205737 5.115898 22.360297 21.815978 23.633284 13.016363 14564 14308 
33.558616 -34.435993 -25.611557 -152.447308 60.613069 48.505709 35.211956 34.605509 -74.457577 -108.058649 -32.043593 69.518221 63.905987 49.092859 29.408369 2.634383 14565 14309 
69.303942 -26.589584 -37.722359 -165.486845 45.123514 37.618575 33.705248 44.047509 -25.871629 -105.698204 -72.549212 69.106175 51.925424 37.629897 33.089682 12.367869 14566 14310 
67.284968 -23.308428 -66.793339 -166.395229 56.779632 34.983612 33.200331 64.248452 -3.196025 -47.705855 -3.802151 110.698688 26.099676 21.113932 -0.609172 -102.599093 14567 14311 
20.404204 12.777858 -39.766408 -104.114490 35.466178 2.882190 10.162945 62.187523 -21.414616 39.251764 58.590705 153.247876 7.237469 9.923652 -28.373789 -218.463061 14568 14312 
-17.585015 49.005142 28.301632 -40.328350 -6.059320 -37.973772 -0.192834 24.832516 -27.528037 65.308404 75.138072 86.462168 18.494947 6.783133 -29.783419 -194.875268 14569 14313 
-69.391743 83.239860 32.328732 -10.267512 8.024941 -17.974800 27.807552 -53.767029 4.180766 28.119833 -10.683083 -58.510246 -4.468958 -16.363835 6.483901 51.241622 14570 14314 
-89.142586 102.857563 12.373011 -21.599042 16.822756 16.264613 47.017729 -84.594043 24.336143 -83.351512 -58.767645 -92.466279 -48.383619 -52.372987 29.369428 281.636471 14571 14315 
-23.904335 97.056313 45.052242 23.880171 -58.138844 -27.551688 6.300105 -62.693965 35.603977 -193.641231 -48.672918 -41.070023 -39.873209 -36.580683 47.399097 276.834991 14572 14316 
20.260824 71.492920 60.572085 92.347005 -102.974448 -49.987069 -43.834731 -47.876587 77.582680 -129.882489 -71.017060 24.342062 -48.897223 -42.303059 28.545364 161.629725 14573 14317 
30.516145 11.303013 41.610482 85.750310 -72.319131 -25.246070 -74.302312 2.687563 81.532065 28.361528 -98.151188 71.895504 -68.075461 -65.265060 -23.161124 72.863737 14574 14318 
46.095833 4.652217 -1.932571 30.058008 -55.994020 -18.117982 -71.797368 67.035884 59.624321 60.438528 -100.489146 47.727075 -42.969919 -32.758130 -21.324238 29.751510 14575 14319 
57.250529 12.192582 -37.403292 -34.349293 -48.890249 -0.892851 -15.556509 67.649083 31.363340 41.808058 -45.730729 16.430420 -9.177876 5.629507 -30.334810 -9.987912 14576 14320 
47.749474 -7.838634 -53.656640 -39.996226 -13.742014 17.898018 15.271339 34.314682 0.580924 -17.596808 -3.602499 -60.954758 28.626511 40.027340 4.061882 8.857408 14577 14321 
4.276465 4.807437 -48.717804 28.496375 6.260541 3.849636 5.258133 -4.230784 18.477802 -14.133365 58.441749 -201.103312 35.404639 38.583653 36.491062 27.837771 14578 14322 
-25.938438 5.873252 14.619071 137.046017 -20.617617 -41.859598 -31.005716 -38.116972 -34.121584 16.748578 155.020399 -100.455911 16.328966 5.445807 -5.782049 -53.184205 14579 14323 
-40.397074 21.644734 41.311895 172.604159 -51.487516 -61.358212 -56.718391 -25.599595 -81.597592 -26.447978 160.192867 18.594595 36.581860 18.045409 -11.291995 -114.077166 14580 14324 
-87.573726 26.645958 45.799612 156.824771 -28.433109 -37.500314 -48.508907 -27.254283 -43.662665 32.209986 101.610335 -57.913838 37.665472 24.613880 9.766159 -104.289329 14581 14325 
-96.296271 8.862080 34.031326 86.589935 15.544010 -6.870706 -18.690797 -23.169578 -38.651826 56.690392 118.915707 7.258990 1.725037 -22.122545 -19.024346 -104.791407 14582 14326 
-51.909008 38.862752 -13.340552 -45.172026 32.048076 21.743527 18.935201 -1.167969 -47.020594 43.671556 62.311677 166.038718 -24.348569 -53.282407 -54.165644 -93.204737 14583 14327 
-9.913089 46.142778 -18.457675 -111.052244 36.434702 31.405835 25.704336 -0.264643 -37.895549 38.771288 -55.156693 183.098093 -15.710095 -26.589468 -29.965951 -56.551626 14584 14328 
24.192240 -6.134566 -17.488808 -105.146581 53.057571 32.262149 22.481277 -3.223282 -26.632612 31.258628 -37.139380 88.577340 -1.666669 6.150148 -5.196235 -55.351220 14585 14329 
27.790496 -50.064354 -29.955768 -58.101767 54.440160 27.107546 20.604428 8.179258 -40.744730 15.389317 -36.814732 37.926100 15.620207 43.074818 18.277928 -52.728908 14586 14330 
37.072890 -55.082506 -32.881680 -55.240438 21.317782 14.875650 22.692769 47.245533 -22.921602 42.881529 -56.100542 -30.336623 2.753834 33.835031 29.579782 0.308590 14587 14331 
51.258846 -29.750251 -25.472525 -53.422044 -21.192659 -1.932338 22.958448 57.552524 27.845628 75.867895 -33.663511 -76.353546 -34.114275 -8.846365 15.145273 34.118900 14588 14332 
5.591350 -52.468339 -52.286754 28.570668 5.166708 19.058495 33.682826 12.685047 32.250509 4.368328 -6.733890 -26.562435 -24.605144 -6.233440 6.521316 20.994757 14589 14333 
-33.196700 -76.063696 -54.200835 131.019787 38.035668 29.036360 14.057795 -48.688379 32.130589 -30.735182 22.455217 -13.306451 0.612642 5.557679 -1.738161 -14.976333 14590 14334 
-16.331052 -41.650959 20.325868 189.255314 -9.114428 -24.695936 -45.477058 -72.311748 26.261516 26.906983 18.032393 23.548843 11.721701 4.408936 -23.566664 -87.313707 14591 14335 
-8.733937 -55.377213 24.460484 107.346707 -1.898525 -11.208139 -31.778085 -22.811292 -17.203225 45.949337 52.864998 23.779722 20.420391 12.908511 -35.419678 -103.300055 14592 14336 
-2.790659 -63.849497 -32.542474 10.017284 18.767923 23.420107 9.022240 37.955075 -22.486638 -10.493119 54.091715 -56.096651 26.148183 34.149733 2.322871 -27.636093 14593 14337 
23.448684 -18.781622 -42.114267 -15.136794 3.219188 9.195274 14.285152 25.884385 -4.776233 -24.123965 16.772780 -48.760037 5.509111 22.757176 19.557167 13.064002 14594 14338 
39.765377 17.356128 -13.363964 -9.596900 -9.041462 -15.462004 4.574110 -14.231285 -7.670673 2.492745 34.287282 -32.471639 -23.185860 0.733956 7.561637 18.252553 14595 14339 
22.965645 25.504026 -11.870886 -29.888622 -3.980716 -9.093715 13.928102 -7.563834 -23.796580 -7.643761 47.782941 31.911759 -46.723040 -13.076945 -2.607151 14.152778 14596 14340 
7.363304 37.946299 -32.387247 -69.061736 6.612089 9.396007 28.610140 11.521145 -34.941782 -26.385743 65.102365 134.066491 -64.420275 -46.423263 -33.608363 6.610569 14597 14341 
-21.467835 59.558098 0.518097 -13.224621 -20.386550 -12.119204 8.430302 -1.308285 -12.654503 3.511253 -31.377073 109.595485 -42.823786 -35.686024 -24.626543 34.061191 14598 14342 
-41.953670 62.803855 40.881504 -7.920316 -26.154950 -20.453483 -5.299595 -1.903346 13.311913 30.224751 -141.586958 0.587390 15.097418 24.746866 20.350993 37.267626 14599 14343 
-29.920218 61.554872 8.382279 -54.607628 -1.135348 -4.719761 2.494956 17.950848 -0.134686 11.857469 -47.158759 -21.327036 31.123563 30.505350 19.581240 -24.447141 14600 14344 
-16.910367 47.755619 -7.291367 -56.270628 12.332056 8.676682 11.673504 0.034501 -14.366937 6.205346 36.953334 33.571564 -6.913610 -10.660069 -0.853781 -43.935848 14601 14345 
20.958060 -0.734844 52.209732 -22.305738 6.562284 -0.806846 -3.764344 -52.118305 17.049113 32.601420 -46.444458 -40.630929 -6.788984 -12.262597 15.898931 40.577504 14602 14346 
39.096759 -18.795771 63.924289 -25.740028 17.763941 3.963099 -17.163324 -63.048964 7.750694 -33.611921 -91.788051 -55.183960 37.041401 9.254094 21.048084 105.489659 14603 14347 
38.223668 11.650558 42.164950 -74.116520 11.900498 10.398364 -22.701172 -17.520346 -8.707117 -85.830133 -19.836894 -24.146436 44.122049 -2.896330 -2.343205 99.638068 14604 14348 
33.609853 -1.012497 34.965180 -95.178750 -5.395180 10.387737 -2.859663 25.483320 11.163645 -53.746097 -47.132760 -58.360872 38.396853 5.875654 22.210358 81.593219 14605 14349 
22.700508 -10.247196 14.869232 -170.592186 7.340590 31.894754 44.202539 59.831759 -4.509163 -31.488031 -65.342128 18.426522 26.532131 9.677792 22.902606 23.800271 14606 14350 
20.859852 1.598879 -22.112037 -198.562924 25.980576 50.682835 56.389938 65.162882 6.158893 14.646336 -42.369263 -8.276889 10.976900 0.842907 7.206677 10.814438 14607 14351 
0.426550 -14.124895 -44.461446 -102.870386 22.347440 39.499122 54.211850 44.971765 69.563479 14.278320 -57.993349 -130.836760 16.810590 10.818457 19.262599 58.096664 14608 14352 
-3.564578 12.076089 2.757099 11.894031 -35.686606 -27.576230 17.199845 22.900351 70.351768 4.182309 17.730673 -100.555545 -1.456253 -16.537844 -7.780018 34.064910 14609 14353 
-1.020312 42.435686 33.448250 115.305328 -76.257745 -70.441609 -42.846609 -0.622990 32.295386 24.543658 63.080088 -75.184447 -3.928383 -16.352607 -12.764444 -11.689252 14610 14354 
-4.051051 10.976508 -3.584092 125.679500 -55.877248 -48.722101 -41.527271 17.105754 40.749102 70.400486 72.987365 -79.632602 -6.439716 -11.217935 -16.996545 -69.850155 14611 14355 
-28.822441 -15.660749 -19.684402 127.349914 -18.795929 -19.276763 -30.737344 5.627713 8.628858 21.435363 19.365594 34.795285 23.148960 14.429512 -12.204091 -109.599480 14612 14356 
-63.708995 -24.959373 -2.077129 154.921678 15.983008 -4.742339 -37.468210 -37.948640 -25.337210 -57.575559 -56.163374 138.160221 51.673481 38.089518 0.152196 -88.999273 14613 14357 
-64.111147 -3.846330 83.982608 130.909191 -8.199267 -32.722142 -47.013123 -58.999789 32.098932 -8.659249 -22.776658 59.749348 -2.627454 -12.388669 -21.938589 -23.457661 14614 14358 
-43.899647 -19.044670 131.337951 161.086613 -51.286879 -61.351103 -48.716431 -68.125833 77.053758 -1.441958 15.860699 -77.855229 -40.768712 -38.428350 -12.610638 78.190428 14615 14359 
-7.509686 -20.049764 19.079482 148.968280 -36.991789 -42.369142 -26.892833 -34.234549 37.619992 -15.995665 101.916900 -159.180750 -56.840793 -38.287782 6.586077 124.182021 14616 14360 
23.696042 3.400878 -63.490442 71.820854 -3.504259 -19.133023 -10.559394 -2.230656 -76.627957 -39.545676 115.513603 -111.611572 -18.114590 8.707874 24.244824 97.433494 14617 14361 
58.189005 -31.310655 -59.180021 3.740823 36.363356 5.402985 -2.888790 -10.316703 -158.035710 -40.534342 34.193282 26.045318 28.026985 48.415724 24.182605 37.706139 14618 14362 
49.491445 -6.876552 -18.468114 -19.013651 44.933111 11.450195 -22.432707 -39.083727 -56.782193 -24.752394 -44.846618 65.838386 3.469657 25.265315 11.894126 19.913722 14619 14363 
30.287239 -7.680682 -11.487773 -1.034099 27.375467 3.612976 -22.009066 -19.064061 31.428531 -28.366423 -103.371028 43.982281 -6.162463 20.618817 21.102974 20.767310 14620 14364 
22.064239 -34.109981 -20.156846 -18.040660 19.425176 7.493832 0.266893 23.057347 -2.558936 10.007724 -44.642273 35.134177 -6.196979 9.769206 13.286616 -14.799534 14621 14365 
-8.960342 -29.951806 5.489438 -17.363996 2.725125 4.270174 13.190185 30.601222 -22.121898 -31.733993 -19.981273 33.705055 5.728953 14.766159 23.193675 -3.556677 14622 14366 
-53.350054 -20.584641 0.806541 9.064242 -0.172221 16.904347 29.061543 18.270243 -61.649003 -65.521063 6.558367 53.779104 16.086665 26.608152 25.248900 -1.111122 14623 14367 
-79.738626 -0.312088 -19.780692 -7.554523 14.164670 40.373662 42.022196 10.825402 -63.874248 -16.034483 56.152401 93.940354 -20.967052 -6.553345 -9.829030 -32.834596 14624 14368 
-61.795679 4.830878 -26.652879 -59.907531 21.485866 43.195555 50.873296 27.970494 -22.758765 27.749689 21.479976 89.451794 -36.865642 -14.414544 -18.058367 -46.584142 14625 14369 
-36.208108 16.901800 -15.648094 -59.507007 18.419143 27.191209 31.265234 17.585824 0.543665 40.079960 -14.215464 77.021661 -20.292397 -1.494356 -18.918823 -62.724246 14626 14370 
-5.996306 1.995019 -9.866039 -15.830595 9.494267 15.465792 10.109819 -5.371958 37.023000 17.234769 2.460799 -8.611768 -10.522907 -0.139127 -7.851296 -29.593470 14627 14371 
18.211786 -15.501927 8.349974 -2.443418 5.809679 8.906685 -9.532476 -13.800302 109.068329 78.131233 44.877539 -178.589585 -35.123315 -30.586355 -10.513818 22.735971 14628 14372 
55.781323 -16.719865 36.665524 -65.465566 2.863598 9.720554 -28.803400 5.957833 103.155554 113.144304 -11.984056 -96.553283 -37.816061 -43.488061 -27.598596 1.140199 14629 14373 
49.728481 -24.658016 36.853630 -129.912839 12.247404 26.305032 -6.744139 36.180448 2.927722 -16.569090 -55.545919 122.485561 36.889424 22.411574 -11.988867 -100.610404 14630 14374 
11.611927 -7.456173 37.522427 -100.900918 8.221107 15.747003 7.475256 27.779371 -24.046828 -59.132156 -25.453187 167.757818 74.220770 60.345570 -13.811227 -179.880760 14631 14375 
22.277399 2.722048 12.420247 -77.214599 0.729992 14.233987 19.012564 5.818362 20.625364 102.289668 45.443602 31.070522 4.339409 -8.479733 -55.893941 -139.394892 14632 14376 
13.576440 0.501066 -30.773093 -124.387124 39.787631 54.735133 52.488231 -5.928284 45.509941 92.493877 126.702201 -129.130437 -35.032854 -60.921611 -56.310486 16.689369 14633 14377 
-10.982553 23.849806 -49.194293 -138.235948 60.028516 73.902165 46.047613 -5.415306 -41.726944 -106.100320 88.053043 -8.637181 2.492558 -27.194865 -12.021161 105.134869 14634 14378 
-4.160091 28.606989 -55.446046 -93.635951 48.282272 48.737208 23.146139 4.469480 -110.372938 -110.579386 33.109854 112.402557 17.529011 1.801603 21.213163 34.896136 14635 14379 
29.333086 20.968730 -41.222459 -51.370179 27.457677 1.340567 7.448314 6.044263 -15.653779 -42.731687 -52.931062 13.341643 28.177388 13.368775 43.503701 12.925022 14636 14380 
75.767612 21.740814 -84.265122 -40.002568 5.693443 -14.137471 15.183374 20.019919 98.128329 -28.559906 -155.485525 -15.294706 11.671828 -5.583004 27.552077 67.570907 14637 14381 
84.318832 18.468265 -98.347373 -4.831206 -14.444692 -20.039701 11.048635 23.827239 142.641657 -18.000427 -135.233490 -7.849452 -29.439086 -47.016171 -6.497034 101.394003 14638 14382 
40.906770 28.209066 -29.048974 49.987078 -31.732915 -35.568902 -14.683751 -8.068372 84.568151 0.621829 -31.142048 43.985815 -52.751687 -60.341243 -48.849910 63.909093 14639 14383 
-32.269444 59.474551 23.970442 92.902287 -43.922691 -49.025245 -32.075847 -19.054054 -141.311237 14.421768 22.250604 118.622174 10.175308 7.109101 -21.672055 -9.595662 14640 14384 
-88.634257 41.701385 58.295077 149.359184 -49.282844 -53.995537 -41.249785 -16.193223 -262.775592 -10.968096 -18.586406 107.104303 94.529962 77.960813 61.993623 -49.258606 14641 14385 
-87.415910 -0.712179 79.369531 135.235316 -39.087623 -41.425237 -30.645284 -15.318614 -91.674910 1.557302 47.286524 40.832594 26.776950 8.589154 27.364408 -60.732021 14642 14386 
-50.830128 15.391492 83.008792 89.472826 -55.323730 -48.976670 -31.507200 -1.235382 53.222987 37.971888 76.633957 -70.587492 -6.292820 -34.263341 -21.925969 -34.759210 14643 14387 
4.216682 -14.703540 63.916200 72.275133 -73.072901 -49.236467 -14.851529 11.456421 51.772081 40.100875 14.923109 -114.583934 16.431064 -2.490036 0.071507 -6.224667 14644 14388 
48.871237 -55.096900 51.798784 37.889962 -60.409518 -30.441172 0.144664 7.242943 30.482217 40.231735 70.309232 -106.077171 2.570794 0.663725 -0.727219 -37.453313 14645 14389 
29.535153 -38.746551 28.350112 1.308958 -26.875146 -6.338387 0.393124 12.372738 28.644323 82.780076 93.790840 -138.183243 -7.916757 -6.704394 -8.089190 -44.321655 14646 14390 
-10.318394 -18.545607 17.907181 -33.672490 6.630237 14.361392 10.952942 12.684740 42.790688 -5.535775 12.820221 -130.604701 -1.770086 4.377685 21.398000 56.523968 14647 14391 
-31.653062 7.945242 27.559433 -69.201741 23.215942 32.566930 19.333387 -9.766130 63.743107 -144.554641 -99.685102 -102.369071 31.484932 41.840277 61.540042 148.000455 14648 14392 
-11.546170 22.296606 32.948858 -49.212406 2.713757 24.421496 10.776000 -32.398142 6.796640 -82.011980 -85.858065 -68.441016 20.394366 47.443952 49.601440 112.074664 14649 14393 
54.128276 28.114257 35.687257 28.388528 -47.136361 -32.097147 -20.636688 -46.448122 -69.027155 21.241145 -8.398623 51.220976 5.624086 35.651616 -3.121713 -33.190333 14650 14394 
75.453044 19.568085 5.398205 111.880696 -52.216046 -63.848690 -59.722170 -36.513125 -17.076101 36.846695 12.168544 127.731040 -25.499429 6.049881 -37.465490 -102.755141 14651 14395 
62.457957 -7.852910 -53.945215 159.378806 -22.818564 -52.987893 -76.700959 -7.531223 -14.801602 64.871956 54.569373 150.524173 -64.537297 -36.533506 -51.540835 -102.552261 14652 14396 
15.462157 -54.285536 -63.897330 144.383372 30.606285 -14.955610 -43.316835 -13.996502 -39.055394 115.994016 53.419371 102.659790 -85.713003 -68.056919 -48.770570 -30.477289 14653 14397 
-27.607620 -73.923692 -77.883778 61.744879 92.384300 36.386849 14.141464 -25.242402 20.962244 99.012197 -22.560516 -95.394272 -74.140914 -42.093139 0.085720 114.128680 14654 14398 
-36.515166 -44.566279 -111.364993 -46.457302 102.702677 68.177913 58.211328 9.811822 47.440349 69.614041 -55.343858 -159.185140 -46.173004 0.616272 26.638811 116.392530 14655 14399 
-74.311482 0.947518 -45.683975 -35.957960 56.295261 50.495837 39.175706 9.039096 0.229343 18.169443 -0.163959 -49.280636 -10.122293 13.605793 -0.408572 27.970881 14656 14400 
-86.804475 49.090289 5.426397 -2.901894 8.813149 18.906353 8.439642 -0.969461 -36.417414 -12.849566 -10.067231 -16.555274 62.196221 57.016713 10.398118 -53.721567 14657 14401 
-78.085081 66.656310 -10.707461 -80.516994 15.644042 36.358945 35.119388 15.530852 3.950018 -10.230523 -40.933025 28.813340 48.938609 47.824891 28.272500 -106.635810 14658 14402 
-76.989529 69.830009 -41.728514 -144.483531 36.619093 55.846377 57.961941 42.944154 14.844547 -43.896540 -61.628547 50.347055 27.107277 19.139099 39.664582 -45.577472 14659 14403 
-23.001409 10.522117 -48.413660 -163.734460 54.712691 57.344650 58.832878 53.737193 53.159798 -30.299484 -158.919632 7.527577 4.541577 -2.198000 39.771957 86.416207 14660 14404 
56.826427 -25.536657 -22.203548 -157.193918 26.110678 27.385427 41.083738 53.527853 131.878191 -63.584685 -125.889057 24.790279 -44.728527 -37.190744 -11.280931 126.005474 14661 14405 
71.983726 -38.462918 -14.111354 -107.196149 1.295894 11.631903 23.734556 51.124342 100.910850 -77.004142 -65.768852 -58.118588 -10.286160 0.546822 -4.565188 114.285258 14662 14406 
67.159858 -124.819835 -3.900232 6.139620 11.210067 17.025913 8.535509 18.649101 20.537617 -1.265713 -32.577991 -182.325928 32.253833 40.538611 43.708357 79.131214 14663 14407 
69.363998 -97.365285 30.026757 139.398720 -41.486430 -46.264597 -39.414315 -14.258849 -7.218611 -33.206572 129.763562 -184.908598 36.396186 25.289025 28.246531 5.638478 14664 14408 
40.038578 -22.065378 40.368651 135.867837 -58.288389 -61.821588 -52.300215 -21.799497 5.530390 -79.415803 116.264301 -48.931094 17.725268 -3.711773 -2.763636 -4.697653 14665 14409 
-3.520200 -1.734947 35.025324 121.081170 -31.484535 -34.257865 -43.107341 -42.001607 -18.697006 -55.802100 6.690058 104.694491 3.978392 -22.920361 -16.363500 -1.579973 14666 14410 
-45.477471 18.279009 87.203729 217.081836 -34.319957 -61.911778 -73.123615 -107.731753 -69.621272 -38.793861 36.163241 173.590225 -2.455801 -32.404203 -27.384200 -39.094129 14667 14411 
-31.799981 32.323594 76.086473 159.048947 -32.056975 -57.578422 -58.373913 -87.649723 -78.344367 -21.881190 19.100797 214.062954 8.681274 -25.250446 -34.403905 -81.965118 14668 14412 
-21.541204 47.450011 9.691167 3.221319 -5.775054 -8.788536 -2.378902 -21.878802 -43.038506 -23.941449 -70.250543 180.511102 30.452275 4.216188 -18.880556 -59.068512 14669 14413 
-52.048672 34.996220 0.695814 -78.956817 28.192484 24.545134 13.657798 28.918038 -18.518903 -16.308937 -80.727407 88.220580 6.298339 7.669867 9.773669 3.592791 14670 14414 
-36.663459 17.870896 -14.925928 -80.388218 34.379678 20.413564 7.515148 51.798318 -18.278128 6.993359 -11.203204 -8.114621 -17.845547 -2.725033 18.592636 32.580538 14671 14415 
8.584554 21.893462 0.749628 -41.611794 12.440185 -8.101894 0.909272 5.136587 10.472670 55.493090 67.944225 -85.942893 -45.135322 -27.770399 -3.654714 28.593342 14672 14416 
61.893967 40.256016 31.510805 5.750100 -43.743063 -52.762792 -23.375985 -19.529048 0.901129 64.728215 164.563499 -56.648908 -52.295783 -38.807568 -32.327441 -50.113143 14673 14417 
51.636312 4.580048 41.094728 69.915410 -69.019698 -58.421774 -21.740654 -18.044372 -52.689532 -5.941430 137.256053 61.514654 0.749979 9.551224 -28.119769 -122.321178 14674 14418 
2.534235 -10.525223 53.195062 -11.987851 -40.758437 -8.119660 12.207046 3.454828 -77.903215 -37.273127 60.744472 87.543489 61.685784 50.711776 -13.215408 -132.293771 14675 14419 
13.460175 12.495993 51.374826 -82.128834 -37.265638 13.603217 10.693311 17.766950 -83.046461 15.432119 100.345101 38.865591 83.425059 53.314532 -19.775636 -188.560305 14676 14420 
5.478187 3.714416 58.529350 -85.504164 -23.917998 20.704112 8.345841 12.650257 -57.470357 77.113662 110.148486 -0.629467 72.194758 44.085011 -20.572914 -224.869179 14677 14421 
4.884179 25.112082 57.440510 -113.882866 -22.211460 11.020102 13.432627 24.204825 -34.691872 55.558734 74.588538 -3.481781 60.410257 30.394251 -15.832904 -166.945223 14678 14422 
22.905920 -5.885472 2.548241 -101.097296 -9.163236 19.227163 29.254609 42.210073 -12.335873 25.889149 63.434400 -6.617430 3.770368 -33.295420 -27.530783 -13.314409 14679 14423 
11.291823 -27.883555 -43.294656 -55.940965 22.251976 35.933333 32.254176 25.387867 73.813224 -37.652091 26.405536 -76.568235 -71.691484 -92.932587 -27.083694 205.709331 14680 14424 
-14.495805 -10.618031 -40.279720 77.298957 21.670452 7.420710 -5.194230 -35.802333 137.611828 -112.390065 -35.437035 -104.540328 -91.074032 -76.210756 0.365011 281.675377 14681 14425 
-52.612338 -2.491660 -63.150254 143.531102 32.756502 6.941823 -4.904856 -60.070318 74.631266 -36.663877 -46.085960 -65.339731 -56.550425 -37.915975 4.140123 163.784580 14682 14426 
-78.791999 51.174262 -70.918721 64.238085 24.029567 17.058593 20.631407 -27.421195 35.886083 112.923873 -36.966771 -82.308936 -40.081824 -25.402077 -7.820766 43.770419 14683 14427 
-125.834571 73.830935 -79.093725 9.223645 49.656712 55.007165 38.826038 -21.616198 48.425507 149.742926 -73.742353 -115.005592 -36.013680 -9.617023 16.504976 19.705238 14684 14428 
-130.114614 73.757113 -73.992543 14.758040 34.912119 49.242617 13.303653 18.133616 10.286879 22.985092 -103.501726 -28.850804 1.448670 26.071635 38.678983 32.881271 14685 14429 
-63.479242 28.849974 -30.869956 19.618647 -13.334148 -8.239228 -9.823253 77.277206 -5.698591 -32.231363 -113.922694 28.124328 11.199843 39.576914 41.451059 31.500505 14686 14430 
8.054009 -57.418477 -38.869705 -4.670501 30.754518 0.927582 12.712614 48.509959 -17.504590 45.497393 -165.278768 18.014454 -1.527116 41.393006 43.886335 35.519287 14687 14431 
54.356910 -65.923548 11.459311 -39.001162 54.100851 -0.750363 -12.333752 -1.908247 -34.727626 29.057022 -165.996560 -43.650687 30.261314 69.821544 66.927875 48.307117 14688 14432 
59.524055 -44.027035 71.862655 -27.442186 49.955402 -8.279932 -42.846603 -58.746356 -20.827253 -59.689293 -37.101294 -115.224277 46.109537 66.322168 68.222819 52.187593 14689 14433 
93.794407 -56.899087 41.475276 -21.088181 25.645726 -8.112886 -30.310146 -44.505109 3.949158 -78.163791 54.353528 -56.085697 3.897087 11.154138 19.376802 41.518773 14690 14434 
94.072468 -79.206527 19.776837 -66.790663 9.152952 4.321508 5.904275 12.769148 38.967451 -52.058624 91.373974 -83.760407 -9.035484 -13.545352 -2.483128 30.541571 14691 14435 
80.930317 -72.230901 7.367554 -142.424202 17.144178 33.766140 37.541965 37.904949 17.398262 -73.785517 117.807551 38.967490 -23.278185 -36.064125 -32.373678 -8.671798 14692 14436 
84.970732 -25.755538 -29.902582 -165.192765 -4.442098 22.120443 32.019804 86.182003 -41.688620 -61.549484 42.574054 266.767043 -27.590176 -38.789415 -60.868803 -78.854599 14693 14437 
69.394219 25.993127 -68.791510 -94.459555 -31.563090 -7.295173 25.556359 81.165622 -13.138507 26.422791 20.190583 214.963482 -15.049344 -32.073723 -65.323700 -135.991582 14694 14438 
66.878847 60.700883 -45.812180 -60.922925 -36.401424 -20.723033 9.481901 26.797930 52.705440 113.648455 65.215799 196.493822 -51.010453 -87.603002 -115.311295 -174.138766 14695 14439 
14.778732 52.302661 6.297834 -58.972059 -10.564218 -9.815284 -2.974882 8.947215 53.925657 103.097622 25.540478 146.199956 -35.975530 -81.847545 -104.711612 -106.229025 14696 14440 
-48.981835 9.709087 29.947114 -12.533480 18.107789 10.253698 7.671004 -14.173376 -21.810270 -12.727460 -47.097026 62.797345 28.056224 -7.976668 -19.011514 17.769370 14697 14441 
-61.355714 -0.129682 32.250833 32.939371 14.236231 9.257091 12.512722 -39.710851 -153.916687 -80.742322 -83.736743 66.509265 73.838474 59.455044 51.967132 66.625837 14698 14442 
12.207093 -13.290087 16.808267 50.109483 -21.500130 -14.841330 9.670691 -39.163987 -119.684913 -58.523105 -72.284420 -20.509375 62.654786 77.547254 76.257079 54.542693 14699 14443 
55.616947 -21.335661 13.035897 92.051952 -53.371139 -39.656511 -11.565714 -34.775770 32.535767 -5.264377 -28.233620 -98.365849 12.751809 43.879290 41.759072 0.937908 14700 14444 
29.124313 17.635043 -1.463995 85.254726 -54.388561 -42.141579 -25.978452 -8.041495 7.079605 -9.017158 -21.110366 -82.894738 33.393502 54.551737 36.582696 -18.585278 14701 14445 
20.089523 33.796823 -26.885169 -1.827363 -22.196189 -7.008721 -21.256082 25.287178 -45.827128 -15.128892 -60.836803 -36.270277 71.365377 74.437747 37.145874 -24.885897 14702 14446 
-12.050076 46.885568 -14.404148 -50.951882 -6.413830 10.587052 -23.628873 49.976189 0.713813 30.196008 -38.263645 -0.926430 28.512900 27.787334 -5.174199 -42.845780 14703 14447 
-45.292157 53.776437 -7.740301 -71.720656 1.687014 13.469107 2.421546 53.399012 57.346448 63.868266 -38.836102 -50.377641 -16.575388 -11.116534 -3.231494 -1.077555 14704 14448 
-62.255024 45.087689 6.404873 -23.592382 6.858230 10.052836 21.608096 -4.164318 79.096078 59.101011 1.159779 -140.100031 -19.719973 -19.263446 18.850450 20.876130 14705 14449 
-72.522991 47.499961 62.632702 108.229992 -27.169845 -24.883221 -17.835718 -75.950879 41.156731 29.366787 167.563399 -144.463081 -39.821762 -52.791747 -6.267468 5.257140 14706 14450 
-30.156071 -9.465307 53.649435 146.434935 -44.402936 -31.641819 -29.399754 -55.018483 -37.559236 2.847820 273.876353 -15.707694 -65.767973 -85.502428 -43.161019 -29.025823 14707 14451 
17.715779 -90.603707 -1.813759 124.100978 -12.004502 -9.327269 -14.206026 -13.861493 -52.251607 -23.683351 201.696427 147.129794 -72.695080 -85.788547 -54.941527 -59.466110 14708 14452 
-15.262693 -62.909512 -21.344422 119.368426 12.171135 -7.960867 -16.085871 -7.976196 27.160917 -30.923441 10.478182 101.111366 -31.119526 -33.864218 -6.607225 -36.236055 14709 14453 
-24.266516 -14.417032 -20.871235 60.277021 14.085910 -7.367764 -9.121125 1.680741 101.942527 5.566971 -79.133315 -80.433092 13.480945 -2.520063 34.953272 6.142754 14710 14454 
-6.817745 -15.816068 -21.019844 -2.672012 30.146558 15.427585 8.074067 -7.322541 80.401550 5.598578 -55.330310 -104.710078 6.366272 -17.171903 23.205165 61.640725 14711 14455 
-19.950654 3.551981 2.214572 -11.763145 29.270545 16.712559 12.955417 -32.991274 6.869461 -36.218320 -96.448588 -36.985527 10.868813 -0.938294 22.056775 130.795680 14712 14456 
0.270765 19.025284 21.989725 -35.499074 12.120035 9.910912 8.600668 -36.418315 -47.559379 -6.015090 -153.908299 -42.091852 48.745749 48.079248 37.003754 115.745869 14713 14457 
38.511841 32.326109 -2.199280 -70.827483 -5.391356 0.105221 10.961238 -3.486291 -71.085269 24.023752 -81.352499 -27.446070 61.798239 61.102786 26.256523 6.702538 14714 14458 
29.310573 25.976952 -0.582627 -36.005489 -5.691113 -9.908445 7.721284 -10.821134 -10.579174 1.790381 -72.139762 -28.241706 46.764817 51.316849 22.159268 -11.070672 14715 14459 
-0.370162 8.421293 3.657889 -19.091567 13.165194 11.319124 -7.598574 -9.503197 8.202865 -4.398979 -87.971099 -33.645172 5.701348 39.750053 34.633163 37.727822 14716 14460 
-14.651613 -0.041293 -2.284812 2.779876 5.378635 13.720787 -26.871710 21.970130 -10.972376 -13.014472 -30.639070 -42.132120 -20.525076 19.294520 15.133418 82.855177 14717 14461 
-34.906556 -17.781877 13.628791 65.839737 -4.793166 -5.493929 -21.353167 4.860166 -15.717728 -17.176374 4.591925 -43.203297 -19.065876 11.574957 -18.492362 97.488754 14718 14462 
-35.817340 -9.597014 16.508158 55.739540 -8.326756 -10.398953 -5.496185 -2.611450 -49.262949 -25.207657 83.007456 7.019186 -28.466192 1.656784 -25.983174 37.236546 14719 14463 
-29.145993 -1.413528 -27.092028 -18.243225 3.100402 18.801435 24.775639 29.217298 17.942568 -18.247526 118.883317 4.498813 -26.530128 -7.711448 -34.518299 -54.317298 14720 14464 
-8.577914 -25.845024 -79.591386 -124.230501 39.711619 67.223939 66.682851 64.626417 93.175523 17.950967 109.202710 34.736100 -30.576604 -25.532397 -57.771059 -141.185240 14721 14465 
50.638036 -20.952877 -66.330430 -123.350073 26.408055 46.488089 47.121707 39.977492 58.224601 61.821471 112.155071 21.769599 -14.781913 -16.119523 -40.072474 -182.996832 14722 14466 
30.670584 -14.858035 -26.213667 40.074956 9.449196 2.296715 -1.516013 -39.903736 7.534275 49.700237 61.536687 31.268796 -0.586589 -4.283684 -15.437346 -129.732375 14723 14467 
-9.176626 -35.703144 -8.685570 140.151355 6.868002 -20.965981 -34.586522 -37.901514 -20.275817 -13.060390 -62.540536 128.031971 -5.563935 -3.020017 -4.833768 -18.737509 14724 14468 
-6.566628 -23.971195 24.374330 129.341860 -11.946101 -41.832412 -46.732295 -22.667558 -30.618624 -12.487573 -85.261150 154.585166 -22.609984 -25.361742 -21.222397 42.976304 14725 14469 
-12.715775 -11.366331 52.526868 24.821840 5.869889 -11.603345 -13.185889 -34.347257 -9.636422 -36.047905 -37.586991 121.838891 -25.171231 -48.135109 -36.470481 71.209248 14726 14470 
4.562661 23.378375 21.599116 -93.047559 4.176803 16.431749 13.610742 9.288112 52.432174 -32.384147 -72.021096 -15.013758 29.081132 -6.750511 -14.124248 58.780454 14727 14471 
-33.775810 34.591934 0.992606 -38.309994 0.388804 7.267888 5.936107 22.908465 56.563674 6.622497 -45.393024 -83.417602 42.900428 3.648131 -4.526342 23.602237 14728 14472 
-42.691050 -6.283885 0.396653 2.283815 9.489955 -6.362568 7.617641 35.549439 -13.093341 8.911066 6.398719 -62.153612 25.741607 -10.357240 12.552530 32.000272 14729 14473 
-20.008253 -12.550784 -18.905557 30.733890 -0.733371 -17.606467 8.232619 30.837923 -46.422722 9.583634 -7.380357 -69.107191 17.099413 -6.100328 31.257160 71.070391 14730 14474 
-17.399874 -3.428380 -16.941104 81.968039 -5.761295 -27.735152 -2.703896 -7.998337 -17.619149 -22.210681 -25.238466 1.960562 -19.849321 -8.214164 27.810648 63.360572 14731 14475 
-39.935713 0.072265 51.923735 92.379932 -14.794603 -32.316257 -16.700587 -40.628774 13.992568 -31.024395 -56.413585 33.804254 -22.967367 4.095607 29.408302 29.104616 14732 14476 
-112.651288 13.465945 123.119445 136.922212 -24.364991 -30.390464 -37.199206 -68.901654 11.889888 -29.369130 -97.905975 0.830682 23.826514 40.799490 44.392321 5.536209 14733 14477 
-124.120588 50.894967 103.057544 112.323491 -33.874935 -25.698217 -34.254061 -48.328202 -7.330235 -25.607175 -16.002305 -33.629420 15.787098 35.372524 41.228186 -9.818673 14734 14478 
-88.923322 68.976003 64.043933 82.481667 -30.773733 -14.305732 -40.260071 -41.238746 -68.265394 0.773802 104.187218 -67.008975 -24.623787 17.256203 24.558570 13.122363 14735 14479 
-3.168457 54.735475 33.441266 45.753614 -18.934705 -12.583470 -45.669376 -53.574348 -119.354406 41.934848 67.411665 -35.559710 -20.621252 34.481992 24.716708 6.990156 14736 14480 
140.418086 -2.750935 13.155472 -0.744973 -33.842781 -38.880519 -30.111767 -47.242584 -13.321739 113.332020 37.298270 -41.848602 -65.359055 -16.765520 -6.130858 -7.204517 14737 14481 
224.572465 -91.239540 -4.182223 -41.773823 -33.573315 -40.449313 -23.462881 10.108629 65.152061 40.363326 23.254778 -32.372353 -58.102478 -29.209119 -16.995594 7.909380 14738 14482 
206.136070 -105.960799 -28.467755 -82.535569 -17.548467 -18.606141 -7.609883 54.592544 13.153543 -85.275436 8.374177 27.331065 22.932950 30.427743 7.836384 -24.780427 14739 14483 
129.495207 -49.436020 -33.688597 -84.401971 -8.990686 0.639698 8.887948 37.494421 16.197335 -15.412184 79.567030 39.317652 10.292604 24.293451 -22.602649 -131.653240 14740 14484 
23.456746 -25.147873 -51.610704 -104.582878 18.946161 41.454334 35.047203 62.437011 -4.947181 15.351144 95.078234 20.857133 24.766942 34.083186 -26.082698 -159.106760 14741 14485 
-39.769139 -22.190198 -60.446490 -84.570212 23.492131 47.232718 47.854691 88.396500 11.058776 -35.129620 72.824657 -8.272147 40.261734 33.195248 -15.734494 -98.204155 14742 14486 
-45.403993 18.976873 -24.249328 -68.885815 10.065913 15.518966 34.441718 59.535666 41.233732 -31.919230 75.029782 -8.876807 5.699697 -18.362779 -31.018187 -31.786208 14743 14487 
-7.046255 21.413958 6.232255 -125.955924 16.957371 12.868153 34.219999 41.310443 -87.782606 3.096865 51.714949 48.341339 22.879022 -25.069009 -14.855791 1.675232 14744 14488 
29.869623 6.153360 4.589656 -147.331110 25.870344 28.083408 34.251632 18.513088 -131.730535 -0.767082 -6.080425 61.413862 42.627001 -7.540664 22.614946 19.462897 14745 14489 
34.806036 20.785240 11.009135 -100.026717 7.483078 20.760756 19.584330 -14.401858 -48.272068 -19.793450 -83.660266 -34.915327 53.759105 3.452390 45.187879 84.241738 14746 14490 
-21.269093 48.177361 1.369675 -74.783422 -4.621541 24.314018 21.629488 5.183514 -28.846478 -10.496911 -107.189513 -20.890835 79.997764 27.470453 29.195421 30.760100 14747 14491 
-53.863987 59.526837 -47.676997 -99.683235 0.798404 45.927467 46.217250 48.754260 2.088300 -24.385505 -48.813178 32.689212 49.487082 14.025307 12.512032 -37.603250 14748 14492 
-9.267939 49.585024 -65.073624 -143.987928 -4.821820 50.229895 56.209299 67.127092 21.974913 6.145618 16.713979 96.208691 -31.838718 -47.611265 -23.675230 -37.917988 14749 14493 
-5.891909 65.973940 -22.153531 -143.098849 -5.831369 29.859715 42.077043 39.064961 13.038096 -9.336237 4.128987 126.011222 -47.094529 -54.678971 -35.715213 3.646647 14750 14494 
23.420143 35.043688 12.578454 -89.539224 -3.673613 3.904063 19.463253 -1.196763 19.348420 -64.993135 -57.539238 -60.157490 6.545909 3.035095 25.727934 128.032505 14751 14495 
37.591509 -29.221334 -5.155700 7.654462 10.056454 -1.795856 9.825464 -28.954998 -1.456648 -43.767625 -106.480823 -167.848486 37.244183 45.057663 67.500075 169.751662 14752 14496 
27.108328 -84.398982 -58.133332 64.667643 52.988690 18.669803 18.995328 -39.897477 10.708899 -7.523423 -112.325894 -46.158058 15.383857 21.918228 27.494520 90.501871 14753 14497 
26.182561 -110.135261 -103.173537 68.937927 105.414812 42.344414 8.963491 -38.534406 72.539332 35.504701 -62.925790 31.117211 -13.259584 -21.003539 -36.312709 -5.659623 14754 14498 
-9.347532 -95.173677 -103.521021 152.926846 87.904066 17.152282 -27.111729 -22.829234 87.387606 73.871655 -43.265042 54.586595 -48.102239 -43.495833 -55.934610 -25.048132 14755 14499 
-37.630320 -62.347869 -45.445602 199.184606 22.284675 -24.600093 -42.516799 -8.928597 89.729200 73.441134 -41.173134 83.062076 -104.236882 -76.046986 -53.914212 29.138803 14756 14500 
-54.885775 14.154156 7.031769 159.226439 -15.800365 -35.731959 -39.802873 -34.191392 101.661605 63.605907 -17.282372 24.599957 -125.861917 -82.382088 -32.187236 67.846143 14757 14501 
-66.006634 58.454041 23.851489 117.547625 -20.850280 -28.208501 -42.835034 -41.952706 91.961548 64.405601 42.540200 -49.751931 -109.761356 -68.480309 -21.597130 50.683377 14758 14502 
-65.728934 85.782790 48.949765 69.558094 -13.987434 -24.718610 -55.839113 -44.016557 65.099504 43.802983 113.584500 -150.109052 -40.326456 -16.925138 -8.941285 -6.185058 14759 14503 
-37.904815 89.634862 70.415301 9.307610 -24.519024 -26.576204 -43.625902 -36.731828 -6.724591 -7.427409 46.490556 -174.928842 59.704221 84.417508 45.538798 -47.070242 14760 14504 
-25.580571 80.239004 65.494615 -26.885433 -36.013947 -25.036079 -16.914867 -15.302721 -28.875309 -2.498511 -2.200138 -114.178996 60.403941 82.302303 49.236682 -44.189972 14761 14505 
-57.143373 57.611249 55.343662 21.361058 -33.909224 -29.032534 -12.659620 -1.571218 -53.395042 -31.628533 23.643377 52.154215 10.271985 28.760933 9.879192 -39.686127 14762 14506 
-44.839676 -81.516072 36.345528 63.598730 -6.729298 -10.374791 17.032590 26.482989 -85.685543 -101.667374 22.371701 250.137461 -11.945142 9.596513 -21.841298 -60.966319 14763 14507 
28.818516 -138.283063 46.518626 44.980167 -10.695211 -13.745766 17.691840 24.714891 -56.800653 -82.228040 41.345537 221.298395 -4.728079 0.961557 -35.193139 -84.655579 14764 14508 
61.141677 -120.297029 47.145134 9.887878 -4.553329 -14.161963 9.677511 11.160120 -43.376208 -33.693853 27.634449 97.908390 25.226459 19.012796 -12.955847 -79.756186 14765 14509 
50.730494 -116.075450 -3.154530 -15.423954 20.285855 11.224591 29.329488 23.083506 -28.480728 19.076260 23.804081 9.662635 47.206655 30.581098 9.508461 -111.358462 14766 14510 
34.764863 11.826096 10.926559 -14.884503 -12.531790 -17.206213 -5.322931 -7.572081 -4.038280 45.377295 41.373640 -61.641429 56.962610 35.993373 23.281702 -137.308912 14767 14511 
-4.944132 126.647869 27.512648 -9.229995 -28.981808 -25.324052 -30.179771 -55.500758 -23.683980 38.271676 95.158977 -69.618254 36.269182 16.855505 4.024039 -97.277143 14768 14512 
-31.952494 124.535947 8.790057 -5.511786 -37.944389 -10.915399 -22.372572 -24.629365 -23.707120 11.643681 65.211746 -64.183987 14.680663 -5.894620 -15.013404 17.263040 14769 14513 
-33.659781 101.050243 -9.061948 -1.053285 -37.418603 -3.622468 -19.630744 3.396585 4.471544 22.399933 -37.921878 -56.293880 5.500121 -18.953602 -23.109809 103.907571 14770 14514 
-4.076971 83.936469 -49.684901 -25.375113 -20.081879 15.415960 -7.215612 7.082048 -11.573522 60.175751 -61.793759 14.149854 11.134989 -20.592092 -46.629493 55.128272 14771 14515 
35.182622 35.530907 -36.492420 -51.634469 -7.754436 11.130857 -2.588614 16.625553 6.960979 56.006061 -59.233797 7.532714 25.381674 -4.217354 -26.724967 -5.705311 14772 14516 
55.114103 -33.694202 -2.863000 -93.276221 24.078105 22.055384 9.616059 18.969773 42.625839 38.652604 -0.584687 -38.042724 7.456041 -5.856515 5.822704 -50.073263 14773 14517 
50.949604 -38.886300 33.259636 -125.275982 17.481750 23.645941 13.454270 25.371080 16.238722 35.400939 -0.130362 -26.874939 -11.869807 -9.193033 19.597074 -23.168594 14774 14518 
35.695309 -0.821663 53.373623 -104.272796 -13.490589 4.668631 13.021772 11.825713 -34.685988 -9.324934 -54.288876 -38.819707 16.772583 12.627332 47.043782 60.675808 14775 14519 
35.601395 5.076567 15.228596 -100.232252 -27.797404 8.970581 41.591316 21.561200 -50.137013 -110.903627 -36.580164 18.388674 13.442208 2.629658 35.100932 128.059332 14776 14520 
-11.062563 16.823489 37.160385 -33.938066 -46.944382 -7.315199 22.895844 22.380491 -49.728126 -125.385645 -31.384150 84.488114 -14.546650 -15.820259 6.950216 145.426501 14777 14521 
-60.694270 -0.735329 9.724912 34.263522 -6.424017 11.743968 13.279768 -1.158555 -20.177660 -28.147040 -60.529424 63.730915 -24.923814 -14.928307 1.957472 83.017859 14778 14522 
-67.763388 -11.527330 -64.141700 42.594330 47.146924 34.562254 26.177333 -7.048422 54.355870 60.090353 -69.397948 3.151954 -38.138917 -26.319994 -1.955677 18.214359 14779 14523 
-57.989829 -4.003114 -44.296354 102.091037 40.464460 -4.028308 -13.798061 -18.439831 59.857408 34.356645 -18.430128 -75.367885 -14.471253 -4.272831 13.967300 4.360743 14780 14524 
-45.541916 -46.829178 3.628434 180.495679 36.289642 -25.820222 -46.300028 -55.922411 17.780045 -29.191790 83.175814 -96.883619 -9.606134 -4.753828 9.738644 29.740867 14781 14525 
-43.289422 -35.820894 23.928649 165.462361 33.448453 -27.141493 -45.121585 -71.466069 22.587413 -49.848457 101.062712 -112.004745 -10.932333 -11.414133 12.964651 47.584891 14782 14526 
5.592913 -6.465136 -3.412677 4.504779 27.690192 -2.751519 -6.400027 -18.758524 18.553367 -37.435506 15.374605 -81.473266 -0.522962 7.193049 31.867637 46.443076 14783 14527 
50.625583 -26.344274 -38.721803 -110.690281 36.534332 32.729938 34.685182 21.181323 18.200693 -5.623664 -18.935554 -22.882797 1.187701 6.051815 18.328582 3.673225 14784 14528 
50.264410 -32.418173 -93.804502 -126.667155 46.616102 54.965701 54.468659 46.574960 15.789679 24.253399 23.072643 19.539905 -3.914001 -18.526702 -13.459708 -46.755216 14785 14529 
65.087367 -20.660426 -141.007833 -95.669794 42.790581 46.381180 50.074490 53.004436 -17.672823 34.294423 73.332223 91.209783 -20.901337 -41.017328 -38.187348 -81.057594 14786 14530 
60.641406 11.080743 -90.972251 38.359187 -0.258994 -17.605831 -4.827982 3.583722 -2.733136 23.349857 23.514061 47.381135 -25.829562 -18.982266 -12.945140 -33.754949 14787 14531 
2.580420 35.870197 49.802823 132.767003 -62.484111 -75.362002 -53.994793 -29.179537 12.118122 37.739470 -51.146906 -31.446398 -18.669312 9.452004 11.317920 30.635102 14788 14532 
-84.409504 -20.310052 158.897231 194.116737 -69.985121 -70.269877 -61.596462 -46.442950 18.162189 33.668174 12.607055 -38.769014 -20.219937 3.916563 -9.902298 0.537267 14789 14533 
-100.174123 -21.091437 120.599013 181.571263 -44.083478 -36.413975 -48.568402 -51.838860 12.517487 51.319930 61.533333 -18.964843 -33.607825 -13.465612 -23.487560 -35.844910 14790 14534 
-53.832845 29.592231 56.801115 74.049506 -25.691087 -13.275338 -30.643655 -36.999927 -19.661424 112.791702 33.207120 -22.725358 -11.632986 -3.383160 -12.672008 -75.923887 14791 14535 
-27.445138 29.895119 64.585845 9.574711 -16.664790 -3.736345 -22.376591 -33.832811 -42.327095 64.827356 48.447879 4.875932 31.762785 15.192652 -9.038972 -113.740538 14792 14536 
10.733261 39.084248 17.899516 -50.148576 -24.798154 -0.065899 -11.633679 18.929283 -40.427196 -83.990395 21.880201 78.583771 68.402736 40.632819 -0.038536 -85.043401 14793 14537 
53.024510 8.574257 -35.935836 -102.035083 -38.379668 6.309757 8.106024 100.336040 -10.778175 -109.707023 -79.310789 89.403445 57.569501 40.982710 10.474870 1.365461 14794 14538 
67.197743 -15.052613 -4.930673 -106.492013 -52.289943 -5.425099 30.492826 86.499772 0.773086 -80.274367 -68.050980 77.493060 24.910428 12.434771 -5.018681 37.732683 14795 14539 
-4.360053 -54.598354 32.776126 0.316817 -26.449110 -4.460189 49.341953 7.432810 26.817795 -115.491583 -63.579980 22.922110 52.230130 37.069180 5.474932 34.557417 14796 14540 
-19.455391 -106.578435 -15.915479 60.030150 11.138570 27.784108 55.931504 -12.935027 45.086388 -97.796734 -117.609554 -27.049123 67.257489 58.666546 32.412235 39.032753 14797 14541 
60.436957 -35.749858 -70.785013 20.839776 -8.216192 17.212175 15.902722 0.359433 -2.837093 -47.495688 -81.677937 0.977753 37.099733 39.571895 32.523467 21.837871 14798 14542 
62.936591 7.293302 -60.732893 21.743595 -6.950804 -0.939217 -17.866752 -5.483822 -113.701977 15.917866 5.939301 111.273815 4.893368 5.524046 3.956610 -33.803031 14799 14543 
22.017986 -44.051050 -54.628064 -7.878122 51.258262 25.692649 -7.645071 15.233411 -107.106915 36.808044 151.017450 155.088409 -30.299783 -49.274488 -44.757725 -111.474991 14800 14544 
4.560923 -20.792732 -27.690792 -59.989790 78.383510 33.714901 -16.368323 8.182303 -0.710103 57.437696 149.113929 78.361396 -37.998520 -61.747676 -56.136365 -128.320357 14801 14545 
-9.621339 20.172049 2.480171 -97.811018 73.917262 21.463723 -7.658861 -2.941987 32.482335 80.015032 17.209254 22.866711 -35.844973 -37.369223 -31.524599 -47.834536 14802 14546 
-31.710846 39.500919 19.618728 -127.503917 44.611704 11.800751 3.740786 39.941875 57.856554 30.643077 -26.149845 -10.312782 -68.006902 -39.663583 -10.536439 66.169920 14803 14547 
-9.987826 60.180253 32.665599 -72.093302 -3.443731 -7.379642 3.252608 -3.193960 49.976304 -5.428089 -24.292423 -17.747627 -107.818607 -52.984029 2.507549 155.786921 14804 14548 
7.685454 41.323181 13.979473 43.264460 -27.655111 -21.887911 4.480577 -61.190123 21.697941 8.238420 -1.088670 -37.853655 -104.394556 -36.481366 3.763794 146.118091 14805 14549 
7.178421 15.545518 -24.390080 76.965947 -22.609050 -17.047710 -11.886122 -23.756924 3.124007 47.512553 -47.431594 -44.901495 -59.168392 6.151739 13.117867 81.595316 14806 14550 
16.549022 -18.140380 -30.037557 78.119763 -12.032380 -15.324304 -16.288047 -2.846118 17.645322 24.603379 -42.058390 -43.953520 -24.660243 20.211992 1.866664 46.344797 14807 14551 
-2.966298 -25.842561 -9.582892 78.773399 -12.799346 -14.252341 -16.420660 3.090699 28.680165 30.603993 42.780549 -89.760665 -5.237106 9.997554 -18.449866 1.385377 14808 14552 
-8.858902 -27.402155 -24.951637 4.524207 19.837493 17.358984 6.027757 13.464252 30.135949 83.701618 81.469941 -118.493177 -10.787378 -12.285508 -18.196141 -35.545306 14809 14553 
-5.830599 -46.651890 -38.867040 -107.717695 65.088254 64.932228 46.014112 23.032630 23.374492 44.825489 119.946926 -109.151254 15.459421 -7.244105 -15.228784 -71.982185 14810 14554 
-31.778605 10.437779 -2.266270 -170.159618 50.606375 62.974190 46.623649 33.562500 -39.993761 -28.209250 99.735292 28.852872 44.481669 -5.672642 -17.857833 -81.336347 14811 14555 
-43.670764 98.047005 -15.851413 -185.156391 30.042392 40.932557 36.088767 39.567846 -64.606648 -65.391741 18.183509 142.589707 32.269441 -17.915135 -17.492652 -27.636482 14812 14556 
-13.968657 112.115530 -16.316721 -147.801515 6.200431 14.312533 19.013932 26.444466 -34.104325 -65.086066 -57.149342 60.411875 50.796825 18.602575 3.693762 22.834696 14813 14557 
30.842276 63.178391 59.816922 -37.310524 -42.743387 -36.422050 -19.934301 -17.427325 -0.216583 -50.859251 -59.382805 32.678412 47.194568 21.766585 -3.306568 12.125641 14814 14558 
76.961027 -33.496159 61.386537 32.151409 -39.413109 -44.705781 -24.240051 -28.643872 28.704753 -55.002434 -67.802384 5.660362 46.626033 28.666727 11.460102 1.686841 14815 14559 
