-17.904949 3.256253 -44.762768 105.304890 -34.842903 -19.764666 25.964696 -17.250552 35.271521 53.623056 115.281273 -68.039712 -4.732345 5.680134 -144.291807 7.207880 9338 9338 
-15.828755 34.607141 -16.920414 152.365204 -67.974730 -46.252864 -35.817176 -4.178406 2.478947 67.547385 100.418911 209.974888 -96.618671 -55.217435 -210.077633 -18.506391 9339 9339 
-18.680363 26.961344 37.906346 185.543601 -73.551596 -69.122838 -92.580003 3.523510 -12.278562 34.433646 43.364047 236.938456 -119.653205 -62.789168 -104.944397 -15.070816 9340 9340 
-21.556790 -12.704349 39.618214 124.430519 -25.917979 -31.938315 -88.779015 16.847715 -13.944693 -38.000382 -30.348831 4.215798 -47.573914 2.726205 100.301092 22.624724 9341 9341 
-15.144865 -31.659467 -1.628824 -27.276856 61.549587 26.140335 -52.024516 40.044607 -14.192795 -64.768409 -109.634429 -162.209521 -0.608802 44.235128 236.235329 70.943500 9342 9342 
-30.742175 -4.664975 14.436352 23.663094 64.303028 15.660625 -122.932156 40.276207 -33.984722 -67.870339 -77.322980 -56.871000 -35.000537 -9.932546 232.272869 48.709254 9343 9343 
-57.248236 7.244652 59.406597 116.539737 17.843757 7.601998 -178.719558 27.331053 -57.532384 -81.172526 -34.083578 52.879479 -48.197181 -31.200118 200.799594 -1.493286 9344 9344 
-47.916405 6.698542 85.282562 57.318147 -6.142287 14.961759 -112.402340 2.200021 -45.633327 -55.534602 -8.515448 23.975741 -23.140823 -3.941876 139.074879 -26.284544 9345 9345 
-17.329443 12.788716 65.008530 13.250996 -38.517652 -11.009898 -11.663286 -12.527963 -8.692938 9.987327 12.060259 36.748574 -33.751502 -7.753743 25.877847 -34.475823 9346 9346 
-0.164109 6.011379 34.479781 55.314464 -71.599740 -48.932226 58.893186 -34.002734 2.454385 45.575227 35.876415 65.900121 -29.366068 -20.080800 -62.562753 -37.796525 9347 9347 
19.769277 0.141607 11.893111 5.500073 -29.797556 -52.503905 95.149273 -50.151881 -17.760747 27.371806 55.610176 91.850313 21.299813 -28.599416 -98.009245 -51.762700 9348 9348 
43.077042 4.076716 -16.330292 -53.554592 33.933907 -43.853783 75.692677 -43.041674 -7.550179 14.807308 58.325149 77.087643 28.908764 -22.539611 -98.987731 -50.051342 9349 9349 
51.330007 3.322650 -35.961089 -17.700198 24.711766 -44.624005 55.262802 -36.341934 22.832616 27.822711 61.472070 14.194330 17.902934 -3.888871 -111.410496 -28.925294 9350 9350 
50.501767 11.425708 -26.386317 -22.293341 -1.725299 -39.614050 58.390798 -30.299264 35.423522 29.918831 46.777297 -7.651977 34.657984 -5.239398 -113.710897 -20.175361 9351 9351 
23.491840 10.728864 -0.043701 3.211191 10.057349 -37.285606 32.064317 -42.224255 28.718838 -1.391639 41.038157 5.080564 55.738541 -19.944975 -84.407391 -24.832094 9352 9352 
-0.147153 -18.455342 12.570202 14.585329 56.930199 -17.412300 -1.761778 -46.309155 14.975572 -37.166733 14.444925 -60.212867 82.940485 1.847170 -19.409810 2.581257 9353 9353 
7.658379 -13.011429 26.872383 -0.817746 59.616946 1.403189 -53.311904 -28.409817 10.334404 -37.228987 -7.022382 -72.506001 65.947552 10.538510 12.007186 17.929717 9354 9354 
-5.306959 2.387795 26.499993 27.167526 65.225581 16.898958 -115.960341 -16.912554 -13.346514 -34.745768 -0.401023 -8.644051 70.215409 -5.180850 -10.714303 2.817100 9355 9355 
-21.028969 -4.413821 13.506355 33.841768 87.636634 20.814132 -110.877676 -19.478424 -28.513468 -34.068169 6.917807 10.758948 75.290449 -14.671123 -14.900510 -0.813935 9356 9356 
-10.315174 -0.384331 3.237070 15.377965 45.896130 3.094098 -45.114763 -11.790994 -3.607598 -1.642042 6.521669 -9.701242 18.507806 -20.992387 8.284226 2.629568 9357 9357 
-0.938625 0.436501 -29.339801 -14.126464 31.672325 19.053235 -17.764802 11.007631 7.498000 20.433127 -25.890628 -66.438371 2.158351 -0.043537 49.959165 12.323891 9358 9358 
0.172342 -5.013263 -60.181841 -33.043802 55.497754 41.977752 -20.952826 21.543884 8.183545 20.101875 -38.336847 -105.378439 17.164061 7.945091 72.263372 18.057343 9359 9359 
5.089424 -4.291784 -56.063305 -101.855047 60.489150 43.302976 27.989885 25.338702 8.523791 13.104125 -36.529149 -33.476402 -1.101162 -7.373913 42.343784 14.508926 9360 9360 
13.722447 15.251379 -41.276691 -142.283509 34.808843 26.754772 69.888176 23.134584 6.354055 25.067527 -6.480894 102.292553 -50.339202 -34.465521 -34.849245 -7.579273 9361 9361 
3.811437 23.918574 -17.993589 -83.394606 3.368088 4.544345 57.893788 7.851964 7.613983 40.104977 50.732747 128.230554 -60.023241 -39.659400 -96.617833 -30.381787 9362 9362 
-8.269953 13.619148 26.859523 -21.472561 -36.435547 -12.272186 48.300000 -10.328424 18.759266 43.903210 62.598067 70.197605 -58.060705 -6.201772 -108.124477 -23.071193 9363 9363 
3.918811 15.742679 64.105451 -18.039285 -98.083988 -21.317322 56.121126 -2.447472 40.673613 60.504188 33.893934 14.655024 -80.038964 24.473602 -96.027179 1.865781 9364 9364 
17.258541 17.567955 47.714853 -21.841861 -135.514939 -9.311514 63.198814 20.928151 38.987285 59.259226 1.159646 23.230762 -74.179043 32.656760 -87.075458 5.960823 9365 9365 
2.029179 4.030599 5.509392 62.453934 -130.914505 -7.410610 53.311153 10.990858 25.039862 51.279119 -0.436374 39.117364 -57.520427 22.352363 -79.359904 -0.472004 9366 9366 
-15.603725 -16.543496 -14.752186 82.659849 -86.379989 -6.950051 63.551514 -5.981915 30.127982 44.894780 -12.100856 -38.914059 -30.058779 30.709087 -41.994827 17.336671 9367 9367 
-11.862922 -25.137753 -34.348256 25.513682 -45.839630 12.793750 77.126319 1.754810 39.434834 36.731107 -50.379768 -119.879841 12.793549 45.166347 5.902889 30.230882 9368 9368 
-26.141242 -38.998127 -59.165821 28.727569 15.673942 33.692937 53.963066 -7.752324 17.548014 11.087470 -36.344903 -119.434293 49.909812 35.294678 29.430930 12.508291 9369 9369 
-37.054786 -39.757089 -61.862044 23.136432 54.418591 44.147049 32.780999 -15.809152 -17.707832 -32.299316 -0.140085 -17.399595 43.331769 10.628050 30.348552 -16.761542 9370 9370 
-25.028498 -18.705968 -26.157860 28.739701 -14.412701 28.295961 24.907573 2.361791 -19.341640 -35.674953 -7.745994 42.582552 0.825024 4.197449 30.811263 -15.653702 9371 9371 
-14.964341 -17.051749 24.391361 -20.673256 -16.105556 24.527752 14.094496 5.781291 -5.472168 -27.664107 -46.298127 -42.613532 37.777972 31.199537 47.801985 5.268440 9372 9372 
-5.642667 -9.619160 50.086576 -41.055694 15.217349 12.070628 -16.203895 -4.853137 -15.901829 -30.066644 -54.884408 -41.451940 86.488764 26.738023 33.947494 -4.869462 9373 9373 
-1.014655 1.535350 31.066476 33.273843 -10.650529 -19.813185 -28.965670 -5.431630 -21.980032 -16.755343 -43.143168 6.063193 76.053378 8.615388 2.802066 -11.655482 9374 9374 
13.710936 5.582362 20.927572 -21.844425 6.723950 -31.664409 -6.365623 12.929637 -3.189109 -6.417509 -50.076837 -9.112127 26.817673 15.779985 7.501208 18.696715 9375 9375 
36.452724 32.112051 36.597091 -72.090825 -18.444288 -49.328294 0.370082 34.331460 -6.617523 -17.261619 12.756971 26.751722 -53.312724 1.823801 8.293947 27.565426 9376 9376 
45.613471 59.111241 28.991974 -68.582920 -55.549306 -46.604847 -13.192110 50.212499 -32.311832 -34.060652 61.791748 97.188362 -71.074118 -29.234019 6.471457 1.229054 9377 9377 
23.334159 41.095833 -3.864882 -41.087643 -3.731672 -34.452060 -21.127386 39.833652 -30.675013 -20.616715 37.445569 77.234196 -40.016656 -42.694129 23.042295 -3.719546 9378 9378 
-19.505889 -4.120865 -20.602920 73.739561 50.796354 -39.240646 -30.364149 -10.701446 -18.305735 -20.384867 68.585109 -55.797382 26.714770 -34.780279 41.066897 -7.098513 9379 9379 
-25.240747 -9.201605 -5.033343 120.680316 8.511827 -30.175420 -31.698217 -27.842811 -28.214148 -34.143398 75.585243 -36.839825 65.188881 -36.230915 24.287458 -29.633295 9380 9380 
-19.799699 5.450851 13.332941 142.875485 -48.857053 -25.860599 -39.099972 -28.041954 -43.955893 -28.434075 62.197498 89.440325 49.638838 -48.020176 -27.960408 -52.906111 9381 9381 
-25.400472 -12.655198 -0.261384 118.339322 -0.333250 -9.541147 -37.990836 -32.157036 -31.943159 -21.506853 26.773755 45.344801 73.135534 -16.805168 -31.757559 -43.241351 9382 9382 
-1.599603 -29.006357 -53.615758 -40.885103 74.460083 35.625539 17.906881 -2.885682 0.998148 -1.711698 -54.478803 -74.563517 92.237862 30.791589 5.526227 1.200191 9383 9383 
24.382290 -21.367618 -88.804725 -177.313189 111.506488 66.658918 61.991414 22.946423 8.824717 3.943853 -67.674331 -56.791766 50.721941 28.999841 15.096228 16.879516 9384 9384 
22.213372 -16.164349 -95.310943 -174.842507 101.886657 74.817968 51.958197 35.441605 -10.725806 -15.661418 -57.172561 58.894549 -28.518391 19.501844 22.718544 10.963239 9385 9385 
-3.233662 -3.927923 -31.943989 36.198612 3.573761 23.106171 -27.916664 4.143694 -23.119474 -6.562653 11.032446 123.998981 -101.606804 -10.082472 15.462295 -9.122319 9386 9386 
-25.741259 8.918124 78.258611 237.062884 -95.359118 -36.134620 -123.874496 -43.130126 -6.734641 21.231558 81.404790 49.147976 -104.092231 -38.142916 12.891013 -15.705549 9387 9387 
-24.504681 -11.297794 92.559615 175.835093 -76.998159 -8.821241 -109.970543 -36.802291 10.715563 -9.569605 15.646343 -65.224948 -31.579210 7.446878 56.522922 16.042057 9388 9388 
-13.668618 -21.717877 42.220012 51.233320 -23.489513 28.620321 -53.092870 -10.104775 15.656684 -20.420546 -45.172614 -100.129363 6.687210 35.561768 72.540404 35.276457 9389 9389 
-12.566835 -11.035584 4.283790 13.354897 16.467010 27.576355 -35.331761 -2.747871 21.387703 11.583922 -25.457205 -104.879881 -5.364475 17.754690 56.114673 28.860572 9390 9390 
-9.063767 -7.787971 -6.150191 -29.869135 34.332678 17.802980 -5.273842 6.009248 34.118702 17.019853 -25.144674 -79.307461 -42.681954 11.510221 51.373451 33.111862 9391 9391 
5.664048 12.087075 9.107835 -54.901101 -3.200847 3.991651 8.454478 18.796862 32.532621 31.836179 -11.945455 -5.112116 -87.356188 -11.005024 25.747770 25.302212 9392 9392 
19.026345 42.201643 26.276146 -62.835691 -23.758643 -10.760761 -6.838743 16.689704 12.861540 46.333910 28.214755 66.811589 -99.704853 -34.582459 -16.529871 -3.404612 9393 9393 
12.986463 32.051435 34.141503 -30.357277 -17.156553 -27.358411 -11.293877 6.986717 6.901586 18.020084 25.812219 64.066537 -70.968275 -18.152218 -28.960064 3.280131 9394 9394 
-0.519134 1.271851 24.710836 13.830367 0.812059 -34.870129 -4.151123 -1.084726 8.689767 -15.038753 -13.372485 17.818593 1.213360 4.278926 -27.948039 24.358632 9395 9395 
6.024388 -6.747688 6.706912 -33.717663 45.198781 -24.166276 6.622927 0.078618 17.168311 2.807822 -42.431867 -55.738895 51.409797 9.631131 -17.298370 34.452072 9396 9396 
19.764370 -12.556840 -17.819971 -117.980847 86.610359 5.639354 18.903985 17.439591 13.084553 -5.749097 -76.559451 -79.463300 58.972427 25.876313 26.310436 37.528118 9397 9397 
21.469902 -10.912639 -43.593539 -115.875865 62.031683 22.406608 32.278535 32.195315 -18.609039 -41.896653 -77.487614 -24.300418 50.969549 39.562601 55.665785 16.095788 9398 9398 
3.145353 -0.098657 -43.803233 -5.578545 24.202134 -1.780291 16.853308 7.059932 -38.146558 -37.422113 17.186030 -7.577711 48.208170 5.763404 37.257860 -25.269082 9399 9399 
3.066423 13.149762 -39.213123 -15.957921 48.038433 -8.566644 9.089559 -9.606490 -23.427696 1.321556 72.481140 -10.016323 48.260791 -37.872017 -0.719542 -50.027909 9400 9400 
29.603602 21.382852 -48.660540 -176.005887 74.210003 33.724665 45.094392 20.650912 -18.963646 -6.757378 25.104680 54.869447 49.994388 -24.967529 -30.425048 -48.854914 9401 9401 
39.983716 17.813580 -33.137861 -256.768322 61.094902 62.205486 68.058843 40.749656 -24.067506 -41.231040 -20.251457 126.875450 54.498919 4.463524 -60.953765 -39.334126 9402 9402 
23.490169 10.403432 -15.873816 -120.019947 0.458327 32.063450 52.129681 17.348703 -5.759431 -5.956521 -5.049956 113.742199 23.419395 2.624495 -98.310743 -24.709437 9403 9403 
-15.502856 -14.015552 24.286351 193.755996 -98.957308 -47.342719 -3.710193 -38.513719 27.856280 30.691192 38.794819 5.836504 -26.626803 11.239435 -97.742294 9.950867 9404 9404 
-55.245114 -42.473697 77.745237 395.413218 -134.759907 -98.374081 -60.428143 -81.877514 44.566352 35.079625 59.192717 -130.895123 -39.393141 31.859330 -46.636463 46.226704 9405 9405 
-48.508829 -31.572600 80.967135 274.405109 -93.509452 -70.179999 -47.157817 -64.443548 27.607185 29.886946 27.803328 -91.869169 -48.871324 17.237413 -6.453006 44.658627 9406 9406 
-3.882656 15.871343 57.750643 61.576491 -56.762244 -37.918840 -13.985733 -22.649004 29.181731 64.413047 11.278204 -42.495293 -76.955519 -22.228654 7.292861 29.513623 9407 9407 
15.450705 21.565045 14.340204 -56.195486 8.289480 -4.700794 -1.486529 2.737375 31.836053 70.812176 -8.039357 -53.559341 -66.109250 -24.484922 29.572423 19.972217 9408 9408 
7.439290 -16.518118 -34.929765 -119.483142 59.972333 53.238890 24.290396 25.990116 6.876661 -10.028845 -68.119332 -6.247644 -21.134559 20.497998 68.207801 9.947921 9409 9409 
-4.398707 -25.627140 -50.565580 -75.421366 40.907596 61.161707 29.991512 23.951979 1.649867 -27.478869 -46.076779 -26.955155 1.859811 32.396062 81.648690 -17.043626 9410 9410 
-23.560400 -23.211363 -29.318249 13.950669 15.199852 38.167753 15.877846 -7.106108 -1.623032 -12.483363 7.501931 -8.400531 23.601139 12.072310 34.291082 -54.959536 9411 9411 
-14.142322 -8.128397 -29.305337 45.750388 -24.631213 30.956323 3.426845 -3.926287 -19.840735 -26.242319 9.337994 91.870061 26.057500 4.556022 -25.968508 -59.770015 9412 9412 
9.615500 34.125830 2.987329 58.414674 -99.882000 6.517299 -21.843027 10.064395 -21.886160 1.349976 35.293430 183.297189 -13.451977 -24.596534 -110.493396 -49.512528 9413 9413 
-4.600904 35.107796 63.597173 48.369580 -98.613046 -16.213096 -11.939263 -15.708240 0.629521 27.264987 60.531757 126.879308 7.146486 -30.031259 -172.006408 -20.414392 9414 9414 
-2.931094 24.119271 60.710305 -33.967270 -17.835716 -23.144232 16.871289 -23.822554 20.980488 27.443492 47.958383 6.746780 39.990485 -14.354145 -147.989387 19.223904 9415 9415 
5.678885 23.591667 30.032404 -76.130504 47.427113 -19.870219 1.176662 -11.906007 4.940361 1.062677 24.776605 -43.982527 61.356923 -13.428661 -71.107397 36.382018 9416 9416 
-9.740061 -2.450484 17.991511 4.362571 60.012790 -27.242740 -26.236868 -16.696720 -17.275951 -35.421684 -22.971709 -40.773022 50.080329 -20.397732 46.905149 39.854620 9417 9417 
-15.904530 -19.732840 4.581352 67.805951 35.014088 -38.507034 -13.938610 -19.318377 -27.281782 -47.173385 -51.722346 -23.402519 13.053498 -29.701316 138.219488 28.008364 9418 9418 
-11.448789 -15.262678 -11.822707 21.305279 32.267379 -15.034869 6.107126 -6.110740 -43.152080 -43.931173 -59.487792 -53.827671 15.870430 -9.545933 176.798367 17.275853 9419 9419 
-2.195333 -11.965165 -11.321106 -68.571392 37.819475 21.243796 23.510964 11.478761 -63.431934 -32.589135 -79.647977 -64.570116 16.090943 24.662467 183.488025 15.997726 9420 9420 
-2.323860 2.321507 -20.708506 -98.523045 33.758829 38.667665 16.268658 30.538752 -54.994987 -4.833705 -53.504689 -61.428705 1.389124 34.028991 133.950913 5.393057 9421 9421 
-15.367371 25.376467 -23.993873 -44.949661 7.741102 34.752958 -34.363294 50.803671 -9.455250 20.014488 -15.134355 -2.761319 -34.776071 13.942461 58.743758 -30.573712 9422 9422 
-21.633662 20.004160 -12.266909 40.045415 -34.043781 5.248447 -17.447801 20.094132 18.065659 15.441732 32.216485 39.095896 -34.017644 -2.300595 -8.610247 -59.891286 9423 9423 
-8.807322 11.275077 4.471226 65.583172 -32.371655 -33.615487 17.966777 -24.501788 33.141651 23.747939 89.564885 10.851160 -12.308959 -29.036221 -69.408930 -46.551524 9424 9424 
7.434442 3.210785 3.178415 -1.909801 14.499736 -18.506206 3.373725 -11.281098 33.643619 20.662957 57.416529 -35.644722 13.864109 -22.138025 -68.841552 1.037085 9425 9425 
35.515958 -7.800048 -29.021671 -128.185719 54.355893 39.788168 -8.811092 44.158510 5.946402 -3.937807 -41.150232 -71.549541 41.141277 35.264338 -20.901482 55.187045 9426 9426 
66.931935 -34.643324 -65.750895 -229.063980 51.081419 82.809126 32.921567 95.714152 -11.766828 -36.668001 -120.263108 -24.678408 23.977035 67.870222 13.111631 88.417457 9427 9427 
83.904886 -52.031344 -83.432897 -174.766127 -19.840000 64.142887 82.547206 99.475387 0.595039 -40.020169 -110.370482 36.701376 -28.991994 59.198462 6.132986 76.754782 9428 9428 
102.298138 -1.772337 -75.565072 -57.189630 -127.992709 22.202273 44.452236 93.567101 25.319896 15.320500 -55.853573 6.067288 -81.701319 33.932340 2.322931 54.591938 9429 9429 
73.828440 30.770084 -25.354928 87.536356 -163.736707 -15.835780 -42.450413 55.242947 22.495564 18.925111 1.613826 1.287296 -80.329614 -3.117683 15.017493 24.108007 9430 9430 
8.816965 22.532470 34.976619 215.268139 -101.674085 -52.439071 -114.813206 -12.667831 -1.772250 -11.136204 97.028924 71.445026 -76.244506 -55.785745 2.699167 -26.234413 9431 9431 
-25.050926 -6.017290 32.450270 191.317260 -17.844997 -35.868576 -93.697824 -45.287918 -23.375373 -27.170253 125.137197 43.130579 -39.908551 -55.440455 17.821790 -40.194934 9432 9432 
-36.301779 -22.427506 22.017546 103.519677 72.186494 -13.411436 -65.888504 -59.694491 -11.130152 -14.201834 70.896299 -12.825722 22.159592 -45.239133 35.851205 -45.510254 9433 9433 
-33.294753 -0.752976 39.932822 22.435521 102.101654 -7.892895 -69.457293 -53.072081 20.181652 39.697622 46.232014 -38.667597 6.939247 -54.403165 29.795041 -49.774815 9434 9434 
-30.663041 -4.232198 34.566755 20.977834 51.262391 0.274669 -23.487086 -48.699323 18.709071 56.895917 47.984289 -39.376086 -5.402083 -32.812281 6.741826 -52.740654 9435 9435 
-25.440358 -17.457418 -2.962972 12.526630 41.324813 21.662146 17.166270 -46.819111 -6.072092 42.878268 28.482744 28.905628 22.932061 -11.942974 -41.229847 -63.953788 9436 9436 
-45.180918 -15.956008 -12.135166 34.124428 41.529634 22.293016 24.632284 -49.307269 -18.727602 27.768554 36.648673 109.019499 35.757182 -6.462669 -112.027264 -71.976373 9437 9437 
-53.626169 4.741780 1.934637 36.016651 7.268451 -0.151164 40.611953 -36.796139 -5.373093 -0.331396 35.747020 152.775186 35.681799 0.312060 -156.921321 -61.890255 9438 9438 
-1.740631 25.464844 -12.863803 -89.955895 -2.547466 5.977652 73.661682 2.003617 23.969256 -59.815820 -35.412288 74.374172 66.400759 43.603901 -100.550855 -12.569124 9439 9439 
12.369686 16.597128 -1.119640 -79.102567 7.354820 -10.684844 53.795666 0.789750 44.139335 -72.863265 -59.190094 -34.699448 66.007612 59.605828 -36.068899 33.068931 9440 9440 
-5.770596 -8.562777 18.375886 -6.494848 22.356833 -32.510369 29.467998 -16.862127 29.512029 -35.040770 -51.507318 -85.218945 40.816692 35.853262 7.260333 58.324717 9441 9441 
0.076721 -9.096194 17.855514 20.020635 0.592247 -40.673998 26.417551 -15.192475 2.318104 -28.917387 -43.841040 -59.177493 18.718937 6.831175 46.160633 57.907070 9442 9442 
8.963002 11.733282 21.948643 6.686165 -24.344641 -34.415504 -0.819094 10.248147 -18.584627 -20.084335 -29.824800 -3.333914 -15.430015 -16.770026 61.271583 42.756135 9443 9443 
0.913643 17.431574 14.569280 -36.866282 18.193718 -6.513755 -24.118414 16.390237 -32.372719 -11.269788 -12.533412 34.445972 2.889519 -29.132865 41.170219 6.803074 9444 9444 
-16.184977 12.468502 20.393141 -21.045949 56.221031 1.002659 -37.720466 -15.133940 -31.895657 -3.391874 21.194561 65.221208 38.280414 -44.242640 -11.987970 -33.178043 9445 9445 
-28.787160 -11.750311 12.554410 -32.590824 98.712071 13.529576 -21.055951 -30.611812 -8.570525 -3.378987 0.827037 -15.971725 73.374715 -13.950899 -12.205283 -20.124334 9446 9446 
-35.497576 -24.074566 -13.573241 -42.286977 111.563367 21.342004 14.380094 -31.853106 7.001212 -7.858290 -22.983210 -44.575711 67.705844 10.412951 -1.660294 -8.042501 9447 9447 
-39.604186 -0.097240 3.073390 43.475091 27.170208 -9.811298 9.772009 -33.977973 3.505597 20.052124 18.363531 13.056646 -16.737891 -4.325262 -19.360686 -14.554058 9448 9448 
-28.161540 20.212935 37.648671 73.591200 -46.057354 -33.397962 3.586386 -27.422336 17.975939 56.928485 43.180340 -5.998977 -89.252127 -8.183292 -16.170394 1.520026 9449 9449 
6.521506 23.476283 23.012549 -18.959137 -78.983057 -10.959085 45.582856 10.308085 34.577863 65.977353 -14.159118 -73.188613 -94.987825 32.983353 7.207792 41.589195 9450 9450 
30.627882 23.668745 -25.953298 -96.857382 -83.673470 22.261769 78.741853 51.183901 30.647917 47.604526 -66.179235 -95.710665 -66.371957 68.218144 18.626487 63.164782 9451 9451 
32.899064 20.846278 -50.982732 -85.961355 -59.471054 19.333635 68.822947 54.513217 21.960250 38.393048 -50.446378 -53.768917 -56.503418 43.773382 6.159484 50.432549 9452 9452 
32.028141 12.696977 -44.411358 -27.627524 -71.713746 0.794811 50.811362 47.421337 15.840429 29.714980 -9.486140 -36.907767 -72.738080 23.348789 8.208252 42.019537 9453 9453 
22.765747 8.488520 -18.973991 37.967450 -83.580604 -20.300088 25.652859 27.980109 -1.166695 20.424489 40.553398 -14.097442 -72.313283 0.729294 9.291340 16.578901 9454 9454 
6.980868 6.368811 22.815054 122.350992 -82.445503 -53.575916 -18.463860 -4.030445 -14.397824 16.654191 86.348410 34.801114 -54.087001 -31.275957 -14.880109 -23.162823 9455 9455 
-8.909674 -0.485045 47.261538 150.099012 -56.892851 -57.422662 -42.203238 -31.447079 -24.446613 1.137157 88.885776 93.724719 -6.571552 -55.790532 -39.663323 -57.275632 9456 9456 
-22.464409 -11.535657 33.204584 115.063842 8.260735 -31.689903 -44.816712 -46.022480 -27.384475 -7.773924 66.702731 71.116482 51.012157 -53.750836 -35.930427 -63.991709 9457 9457 
-7.812035 -17.579789 10.806649 1.077077 38.213776 15.928680 -23.226545 -17.407813 -14.551873 -5.246709 19.340931 -20.262448 69.637978 -10.500650 -2.072418 -36.344812 9458 9458 
19.638026 -6.902764 1.647410 -150.065246 28.296470 60.113239 13.812608 33.460258 -2.432801 8.562326 -48.413573 -19.916926 45.502167 21.062093 7.989683 -12.352969 9459 9459 
20.988020 -11.234519 5.583966 -144.846185 -4.766339 71.793106 15.222209 47.259741 7.157855 -6.068838 -74.767422 -30.661147 34.047451 53.665814 6.535257 10.091031 9460 9460 
4.209381 -30.221278 21.958409 -34.933639 -20.971602 47.965180 -4.341542 16.335092 22.028935 -22.926242 -68.710191 -84.670313 35.642726 68.317246 16.765503 33.552337 9461 9461 
-7.364537 -32.754278 22.665673 97.381474 -18.117830 -15.989855 -23.703163 -22.117485 29.764194 16.080334 -19.661175 -71.652742 -8.615130 18.029458 0.624687 35.430374 9462 9462 
-23.041515 -31.217928 11.925189 195.226121 0.644753 -52.545827 -51.762430 -49.228363 7.040188 31.181138 42.678092 27.985668 -29.392073 -43.174134 -35.150075 -1.168803 9463 9463 
-23.772064 -32.384661 -12.424376 82.535010 60.446208 -8.989822 -31.900923 -33.509371 -27.451967 -19.712043 22.923909 100.224498 20.206493 -34.587237 -30.910212 -30.693441 9464 9464 
-6.094288 -32.784526 -55.919797 -86.364406 113.043403 45.543761 20.233280 2.342572 -36.027809 -70.265041 -21.109824 48.276341 85.859935 9.961590 6.625285 -23.320475 9465 9465 
-0.332852 -18.278174 -53.383575 -116.088450 101.972204 40.632342 36.412697 9.065808 -16.605728 -52.010233 -17.932872 -24.515556 99.625026 16.978410 11.664197 -17.203245 9466 9466 
12.272913 17.187463 -39.695571 -140.167290 57.829287 28.084392 40.576719 23.912088 2.580269 -0.763228 -12.282650 -42.946964 39.043053 12.189685 14.727736 -12.547900 9467 9467 
11.934213 45.237289 -0.565199 -58.467558 -7.627223 -10.341953 0.307581 19.522849 10.449787 29.496795 21.550334 12.696326 -67.718419 -16.326982 16.526746 -6.674586 9468 9468 
-3.582514 32.146410 47.637614 54.173534 -37.801205 -47.237425 -33.359357 -11.977058 1.538430 13.020054 31.987067 108.191368 -101.954156 -47.409510 6.726250 -12.099502 9469 9469 
0.257838 5.542506 24.938930 -20.537561 3.392442 -7.035145 -2.140782 -4.418228 -3.878297 -15.902640 -31.730383 68.258527 -29.235462 -20.522453 30.589282 2.421425 9470 9470 
6.192358 -1.042605 -17.132918 -52.927195 -1.187452 28.300128 20.112589 17.685096 3.578885 -8.997725 -64.090627 -51.112245 37.676860 14.232944 41.932541 26.779366 9471 9471 
7.676846 0.154237 -38.192551 5.329283 -35.845240 24.430649 12.140091 24.306685 14.854367 5.905948 -61.955471 -68.104437 18.627724 25.831740 22.437805 42.402326 9472 9472 
3.561133 -5.371683 -38.544896 8.170283 -5.684682 17.649881 4.710122 15.509842 12.522622 8.777946 -51.035160 -48.115886 -8.479477 27.974574 14.504777 43.850604 9473 9473 
12.300552 13.438332 -18.739783 -15.758122 8.076986 -0.506880 -5.413670 6.602584 -9.590244 16.383039 -1.711583 -1.659020 -3.959851 -12.296484 3.075852 9.758291 9474 9474 
32.065748 54.658267 5.162970 -59.873919 -26.243284 -11.868735 -14.178877 20.277831 -21.354609 23.131123 48.036319 57.556826 -25.304637 -59.673559 -3.471517 -18.919946 9475 9475 
2.438704 38.887800 12.330732 18.145068 -30.659138 -15.313992 -26.868139 1.038965 -38.759987 -44.095751 66.565943 108.898847 -22.581843 -48.676659 16.192771 -37.543322 9476 9476 
-32.230961 -4.587534 12.703553 178.881230 -27.357904 -31.246398 -57.153129 -39.008857 -29.141844 -87.060573 89.448432 -14.252169 18.780294 4.119645 48.749608 -30.643393 9477 9477 
-8.972962 -7.585417 -12.755542 122.876109 -13.303403 -18.905106 -49.015820 -12.337858 6.763121 -32.599663 69.351665 -106.455176 8.382408 20.252104 34.323489 -0.017948 9478 9478 
-2.071698 -1.035639 3.406735 67.850139 -24.801090 -17.767733 -34.579661 8.998947 0.113533 0.361821 36.141717 125.685482 -61.751498 -26.579779 -57.259693 -16.711583 9479 9479 
-17.291174 -18.777920 26.755501 89.927800 -14.853328 -23.427766 -27.486490 -14.846623 6.742323 7.460151 11.285444 127.603661 -37.896215 -20.000442 -88.963672 -6.231249 9480 9480 
-8.767999 -41.365608 -10.320909 31.404161 53.666380 0.621275 2.523682 -27.760981 14.718212 20.930521 -42.585194 -75.990191 33.032659 33.402256 -23.313690 39.805427 9481 9481 
-14.750205 -49.924966 0.276094 102.338398 31.549149 -15.034815 -2.464277 -51.989379 -28.968185 -1.517220 5.548293 -124.245500 42.072703 49.035020 25.258138 32.816751 9482 9482 
1.886908 -24.577833 14.150938 58.367517 -24.958502 -7.971990 1.080335 -17.977374 -22.739010 -28.430147 44.124328 -138.439268 18.361634 49.450772 44.430592 33.241099 9483 9483 
32.058101 12.807892 4.290075 -101.749261 -22.119757 22.206442 12.412214 40.094294 6.398895 -1.001843 -7.159088 -60.806447 -15.177587 19.490669 32.233469 26.021932 9484 9484 
28.585637 17.112847 25.877889 -101.551359 -13.020277 9.644813 -1.929517 35.279967 -1.990913 15.698616 -31.200875 52.016271 -12.408992 -11.653733 6.365244 -16.825617 9485 9485 
28.720283 12.971670 10.436885 -127.158139 -10.082895 20.486178 27.700601 36.925417 9.412199 8.768024 -49.518964 63.554222 5.505088 0.991364 -5.457730 -33.254204 9486 9486 
11.369421 14.374392 -13.116246 -62.472161 -20.372839 23.659492 24.210727 22.347214 9.448103 2.808452 -36.130371 57.463966 23.555072 8.960913 -27.869722 -38.236413 9487 9487 
-11.148503 14.831980 13.483941 12.041575 -26.888900 10.777950 -11.017338 -2.080703 4.344522 -6.167041 -10.384530 24.866740 45.878852 9.449419 -40.337739 -27.650223 9488 9488 
-21.357164 23.037907 51.431575 44.256050 -31.872600 -19.192486 -22.311966 -23.991316 13.956188 29.235665 37.925128 -22.735027 22.636935 -9.940900 -53.821903 -17.256086 9489 9489 
-31.456466 12.487021 66.590687 61.732881 -4.601008 -42.025061 -17.162669 -45.565385 14.841404 46.701750 56.265498 -28.446283 1.653046 -30.156845 -51.672129 -9.186441 9490 9490 
-24.054759 -18.982485 4.204065 -33.233655 85.895790 -6.271639 28.659430 -36.216747 5.998184 7.592259 -5.523994 -11.217151 25.703095 -17.517399 -11.874384 6.839390 9491 9491 
-8.909379 -18.935980 -43.433395 -89.436569 115.898504 12.449129 44.537443 -12.169754 -1.755800 -6.170085 -45.408041 25.322003 12.972453 -18.983355 24.931711 9.091113 9492 9492 
1.251917 -6.373366 -23.684944 -56.516520 54.749851 -1.291206 28.776543 3.087726 -6.369043 -18.077150 -32.107904 27.444323 -21.834516 -16.310342 52.668672 14.585959 9493 9493 
11.623196 6.705381 -24.114905 -19.697063 5.426098 -5.477853 9.925732 15.609414 -23.462855 -29.813962 -22.157388 22.635479 -19.941905 -6.956884 70.472198 9.225317 9494 9494 
10.208912 9.991584 -21.960593 -36.650105 1.984192 5.485799 0.973870 29.966342 -20.558868 -6.283986 -61.042256 7.271644 -0.349582 -5.256384 85.074329 1.145104 9495 9495 
0.713103 -12.572166 -12.007309 -88.697321 17.068576 22.540601 39.810241 33.144276 4.042073 3.998028 -86.132541 -79.421209 11.314310 19.612988 119.889321 6.697029 9496 9496 
19.018910 8.742518 -7.871368 -148.852912 6.490465 24.496616 53.847658 44.128112 12.349526 4.185417 -43.034043 -78.750399 -24.524956 17.714400 105.927485 6.132571 9497 9497 
14.974595 35.060481 23.186942 -70.818481 -24.023563 -5.535071 -1.109498 28.264595 9.212716 10.000893 26.869671 2.022427 -73.444980 -22.369096 47.060995 0.647375 9498 9498 
-27.735346 17.783693 14.312345 19.877448 -25.000596 -2.605513 -15.439860 18.807828 14.956829 29.512371 28.938109 -19.351810 -66.650956 -17.020812 24.608546 5.007723 9499 9499 
-37.779228 2.412640 -34.628936 38.201519 -11.709002 21.544240 -0.116395 22.075162 32.021901 40.439921 -0.689689 -65.216446 -17.230225 13.414557 -14.386216 11.646197 9500 9500 
-15.046615 5.164534 -31.165277 67.460809 -20.530773 19.092047 -34.860752 9.886027 53.016446 37.478570 1.555251 -67.839731 4.915083 19.937052 -71.130391 22.067720 9501 9501 
10.563806 12.588693 -13.582988 0.421193 -30.628993 31.731770 -29.364202 18.270721 48.371838 44.796155 -4.586862 -11.082465 -19.123377 15.645859 -105.325581 31.304433 9502 9502 
17.014532 1.075255 -24.748639 -42.193132 -11.661081 39.067711 12.833870 8.611484 8.119285 34.180266 -7.151979 67.730281 -16.864724 1.205227 -106.335060 19.116702 9503 9503 
14.949631 1.886809 -8.920391 16.599796 -2.781564 14.943157 -25.624175 -11.053263 -25.551162 -6.904154 20.507080 126.559302 -22.241089 -6.194111 -94.946106 8.770239 9504 9504 
25.110907 -2.554840 19.046788 17.361342 -10.357219 4.915490 -37.252950 -16.269518 -27.550028 -66.888383 7.930751 127.625464 -22.680833 29.536786 -67.280211 19.306454 9505 9505 
43.209303 -34.673600 4.716716 1.298050 -29.127992 -3.259093 31.152145 -13.315529 -19.809524 -68.356105 -12.529915 85.757041 -0.278184 45.964283 -43.175259 12.427663 9506 9506 
47.206710 -42.408276 -2.419413 34.798917 -31.708567 -28.413826 41.867796 -18.923340 -0.826371 -30.431922 -0.201132 45.343807 15.130412 14.876693 -38.296645 -5.594841 9507 9507 
13.965890 -35.288738 -5.404735 95.608622 -1.443567 -25.265921 -3.000684 -39.170867 6.612636 -9.696122 12.839779 -25.705551 56.082048 -8.339112 -21.947688 -9.845989 9508 9508 
-8.775888 -21.712569 7.619223 170.016961 19.125170 -24.631399 -84.062442 -57.579056 -12.292996 0.904877 82.146964 -38.021587 63.281797 -33.100413 -42.159337 -20.759306 9765 9509 
-19.568315 4.453383 21.106831 86.267923 5.748745 -8.157012 -81.402770 -8.448784 -32.047126 -21.441021 107.691591 23.205043 45.829450 -44.070696 -54.058346 -25.108895 9766 9510 
-33.902461 -4.808663 -7.823752 5.042544 10.833628 16.440213 -7.125412 21.343904 -26.595776 -15.915687 51.494161 30.921766 38.495091 -41.571450 -22.904536 -13.923569 9767 9511 
-28.945584 -11.174401 -3.622863 22.929470 49.237046 0.497255 -10.517214 -18.403710 2.277960 -0.300729 5.176185 -56.993030 33.318364 -18.608779 34.307365 0.822664 9768 9512 
-6.880494 10.382001 -4.420063 -69.367476 45.505288 8.050030 11.490317 5.240397 3.649234 -11.108638 -29.092381 -88.893228 15.186445 13.911198 98.942870 -2.595500 9769 9513 
15.833411 7.284167 -33.678556 -89.038279 55.777789 15.556435 14.877955 13.387079 12.894159 -7.556531 -51.391013 -92.268320 -11.298383 17.419923 142.696605 -10.496441 9770 9514 
12.563102 15.731958 -8.538121 -23.506215 24.800105 -6.764521 -24.917130 10.630822 24.689091 -8.828736 -96.173228 -158.469753 5.511414 34.901763 174.942047 23.427403 9771 9515 
10.030506 30.220580 29.672960 -3.640667 -21.285086 -19.527572 -35.828382 10.357661 -2.169620 -29.216226 -124.420460 -151.367335 26.424538 57.916117 173.823269 49.009717 9772 9516 
8.820606 16.191774 35.346987 3.167365 -21.039114 -21.742569 -14.801530 -5.943521 -41.469661 -59.892456 -85.945732 1.525889 11.678059 34.854487 121.000524 18.248890 9773 9517 
-2.135891 6.848059 23.633871 16.803113 -33.141371 -17.014483 6.611013 -1.604312 -47.689875 -36.300994 9.937417 78.327057 7.968747 -17.901275 29.921622 -24.262699 10030 9518 
-11.396356 6.897785 9.626561 74.430123 -29.241754 -25.263760 -9.476517 -15.576081 -15.793590 24.515270 76.861384 25.267577 4.305304 -35.514815 -48.159388 -31.481741 10031 9519 
-20.573995 -3.260007 6.678783 97.362443 -15.895850 -38.540117 8.538690 -34.309948 10.358785 53.930791 79.165590 46.408713 -27.511996 -36.654107 -101.455909 -24.241866 10032 9520 
-23.728013 -11.511275 12.870348 54.567207 1.695381 -37.306962 45.686546 -42.273232 23.053068 63.311226 82.568767 90.213181 -34.027657 -53.002854 -129.838275 -42.277456 10033 9521 
-10.977273 -13.380526 25.308265 -16.588061 1.625290 -21.240833 63.829280 -28.576143 21.724730 57.405962 54.065657 101.552422 4.334343 -47.344858 -138.958744 -52.779513 10034 9522 
2.129051 -3.999477 21.283983 -45.764383 -17.843990 5.154211 42.210136 -3.169531 23.684307 45.328682 25.727695 32.894371 48.088238 -16.383622 -124.908704 -34.430966 10035 9523 
-2.643417 10.377102 4.709591 -27.039331 -20.853178 24.184255 -2.958798 14.223776 44.868981 38.559519 -15.099267 -66.864747 9.309478 35.722583 -66.169756 19.673210 10036 9524 
-5.699154 18.937417 -13.886218 -52.314073 -3.496420 35.152829 2.811891 18.493728 54.985149 39.879843 -29.864882 -48.966212 -88.760490 44.281524 -26.334127 54.779195 10037 9525 
-6.455360 8.760110 -39.913689 -58.396445 0.920393 33.874971 41.843780 19.366240 39.312112 33.352451 9.261708 -61.653824 -96.765862 30.174422 1.867289 44.451705 10038 9526 
1.637241 -5.078141 -40.668477 -32.326662 -14.627228 29.053040 38.242133 23.768094 23.273280 18.182788 1.993239 -67.734367 -110.903476 53.952213 35.078400 46.157923 10039 9527 
8.878970 -6.758002 -14.306840 -35.363909 -23.846136 30.132753 9.544804 31.718359 -0.820408 -5.503362 -4.569846 61.237363 -111.151656 32.147281 5.881203 22.779425 10040 9528 
5.000055 -12.707103 27.938010 -42.759318 -27.053293 21.717706 1.646117 26.217826 -42.006580 -31.945884 17.259358 144.731878 26.622034 -32.193214 -47.422879 -35.044713 10041 9529 
2.648383 -6.528530 50.271264 -22.218335 -32.482286 -4.861233 -2.118671 15.289408 -50.339971 -29.558444 25.250585 107.853480 88.114596 -57.817284 -29.481326 -54.021635 10042 9530 
-1.493602 -7.702297 13.215121 28.563404 -8.914186 -22.671218 -7.174350 6.177128 -17.988533 -4.369278 13.817769 39.561540 18.119947 -45.451985 21.168256 -24.857717 10043 9531 
0.228055 -0.777391 1.874566 37.750473 8.861790 -30.111257 -13.228272 -4.597964 -9.348176 4.430977 3.906655 1.371675 -12.118873 -21.272431 42.199538 -9.169366 10044 9532 
6.075697 10.827254 14.316233 -2.091309 15.935501 -28.730274 -13.833364 -2.499738 -34.599338 -19.425675 -20.664586 35.987470 36.628871 -10.072411 40.908165 -28.762496 10045 9533 
11.044387 9.096838 11.198704 -29.308143 10.910127 -14.054402 -2.725561 3.838050 -48.924078 -42.579429 -17.372112 85.422419 55.896531 -16.539469 33.729940 -49.633802 10046 9534 
17.439066 6.380097 -12.572775 -62.463641 -2.620000 9.435518 23.751804 20.649932 -33.268854 -49.589959 -6.267365 23.149405 69.917289 8.011755 24.586981 -36.539252 10047 9535 
9.858316 0.020157 -29.611285 -55.021659 20.069964 11.457269 23.452272 19.774966 4.150636 -2.534866 -15.994371 -27.653411 60.741052 8.654679 -15.045288 -12.318430 10048 9536 
-1.365400 10.133652 -9.739504 -15.353305 28.720932 -13.320816 -0.534688 1.459129 28.257432 46.428306 -2.871175 6.908987 -11.959880 -19.724191 -42.014818 -5.024662 10049 9537 
-1.767231 23.705984 -13.868210 5.240244 -1.565834 -10.355371 1.051575 -2.441157 9.691799 19.961888 22.478537 65.737309 -31.224810 -30.773138 -39.378512 -16.493072 10050 9538 
-18.844845 14.933809 -10.754955 93.038723 -22.778144 -24.725169 -4.574916 -26.294503 2.508593 5.980369 21.415409 37.654202 -29.117989 -13.773613 -26.646508 1.979538 10051 9539 
-33.435209 -17.887102 -7.274142 116.875243 20.159737 -29.895288 -1.520505 -47.022734 13.410865 0.787276 -40.381301 -10.552806 -27.879285 27.121444 -4.440426 41.934234 10052 9540 
-13.741701 -35.102704 -26.584717 -1.692038 48.717312 9.696374 44.315480 -25.608007 1.370182 -12.732944 -54.104240 66.096764 -55.475001 25.744156 -6.370081 35.471164 10053 9541 
1.971955 -21.784062 -37.497219 -48.273946 -2.313971 40.578325 68.006199 -0.687282 2.522837 -11.511007 -23.240926 80.329456 -98.193803 16.464254 2.477255 31.151934 10054 9542 
-8.452206 -13.501972 -31.002643 34.262926 -38.200979 42.694790 22.835604 -8.635519 19.540642 -23.369600 -24.220420 -118.410926 -17.879005 59.781898 48.454713 56.102699 10055 9543 
5.917488 7.070227 -21.142949 34.552861 -63.458579 23.850562 9.455528 3.754861 32.963913 -7.870320 10.357296 -315.985652 62.154736 91.984534 59.634238 66.761255 10056 9544 
20.120574 28.185750 -20.821564 -22.199728 -70.812737 17.366393 26.353762 21.807550 17.788407 28.072989 57.724477 -144.402780 -0.753085 16.640358 3.807800 21.121834 10057 9545 
-8.596140 2.167156 -2.093279 49.883601 -8.452142 -7.732779 -2.212015 -22.964402 -2.542418 22.491435 49.856725 32.709885 -24.439536 -37.615068 -28.093102 -12.367922 10058 9546 
-24.715890 -21.990417 16.838270 95.914570 32.408707 -27.494184 -19.851152 -51.109904 -4.195715 -6.078139 21.931840 -9.393864 39.765632 -18.088834 -15.956001 -7.984919 10059 9547 
-19.644650 -18.180575 36.782851 56.982685 20.894965 -27.828353 -17.207456 -31.799466 -20.399047 -31.962547 17.504662 -10.111193 70.262011 -7.476089 1.960996 -19.778793 10060 9548 
-0.328243 -1.614317 47.980744 4.469319 -5.149087 -37.148425 -2.813125 -5.396867 -13.141912 -28.310268 -13.012656 -74.666303 67.689395 19.823612 43.709056 -2.090924 10061 9549 
18.687716 11.078405 21.391216 -51.200928 -2.759386 -22.644066 12.555116 12.891926 -1.832023 -11.474653 -59.975312 -92.829202 65.815352 25.443923 65.194416 9.657500 10062 9550 
20.167395 8.288687 13.265559 -54.737398 1.125430 -8.072748 3.674438 16.288637 -12.317114 -22.664214 -44.923295 -40.639759 59.700995 13.480650 52.080731 -4.717995 10063 9551 
25.286998 14.690394 32.820059 -90.423295 7.886336 3.328859 -15.370980 21.781629 -9.408685 -17.727299 -13.526610 -8.076445 26.905071 -3.906086 32.971339 -7.231285 10064 9552 
30.512385 15.483103 24.445034 -138.980761 28.782722 21.829587 -14.829676 32.757606 0.788036 1.832739 7.836232 -0.064601 -14.884770 -20.053725 19.284528 5.261562 10065 9553 
18.437172 1.490178 -2.467040 -115.429416 42.539633 36.159562 -15.026113 34.296024 2.305073 -5.939876 1.682949 -40.288876 -5.081036 0.910063 23.862135 22.549567 10066 9554 
-16.797932 -21.498517 -26.479538 -20.659869 79.825991 43.064447 -43.964397 6.509815 -11.030463 -25.019541 0.333993 -3.050120 18.200650 7.409626 7.898561 5.257294 10067 9555 
-48.691486 -38.553729 -35.826363 103.410459 85.086614 34.177494 -72.078671 -27.524319 -4.695777 5.230226 18.897213 47.042695 -11.064435 -18.967716 -30.777449 -5.664758 10068 9556 
-41.616405 -21.923965 -12.361619 99.003793 35.563410 21.199681 -59.885704 -19.979191 5.136820 41.523054 -10.981501 83.791231 -32.164931 -35.004785 -47.207994 -5.091895 10069 9557 
-13.568528 10.077222 34.777438 68.223723 -8.621373 -5.851166 -70.523804 -14.513511 -3.882245 24.932705 -23.216130 107.536120 -20.485308 -28.746079 -32.358390 -23.780673 10070 9558 
-4.572632 11.808166 47.027723 74.888347 15.694820 -14.434104 -98.536537 -31.875785 4.496197 9.395600 -6.160361 21.221100 6.273509 -2.713176 -8.562042 -23.950828 10071 9559 
-3.495871 1.286588 8.371140 51.007858 37.432143 -4.939062 -71.463960 -18.198835 13.514519 11.503752 16.356378 1.783452 -2.019356 1.403033 -26.361839 -16.179938 10072 9560 
-1.475171 7.155773 -6.356218 49.912575 19.090033 -20.474092 -51.437415 3.584515 17.222599 15.037118 58.372643 54.480887 -26.247667 -20.784349 -73.108588 -24.972643 10073 9561 
-1.038165 -0.536672 -10.183457 10.675225 18.281617 -28.129341 -3.217732 14.148524 31.040342 12.621934 39.604577 15.094009 0.506716 -3.930052 -78.001851 -16.935676 10074 9562 
16.121653 2.274577 -12.275597 -50.061732 -6.044247 -24.099136 46.327735 27.756748 24.329216 -2.407554 -15.401356 21.226384 3.803851 24.830175 -53.095030 -3.285686 10075 9563 
37.280512 27.103229 -9.161757 -80.170060 -37.238658 -16.193454 42.107711 36.272478 2.326029 -11.993670 -38.943810 45.516258 -4.556026 23.127973 -10.735110 -4.741644 10076 9564 
39.277365 32.773537 -14.777961 -28.999963 -45.363877 -9.602463 -8.565458 35.258819 -4.355577 3.423982 -59.296314 41.704498 -22.157089 -4.219526 35.172034 9.727993 10077 9565 
21.317273 10.808558 -11.445523 29.307397 -25.094294 11.851275 -68.600009 31.855322 -11.600402 2.930319 -51.313228 65.696406 -62.271762 -27.659089 57.436676 26.781079 10078 9566 
-4.612198 -13.887949 -2.619004 45.564430 -7.294332 16.600265 -46.409960 12.658749 -21.954389 -12.574871 -36.891588 48.450718 -44.766296 -22.992859 66.428861 24.300425 10079 9567 
0.617604 -5.798271 28.717745 -19.206815 -23.222919 -7.220036 18.838438 7.274254 -11.935150 -5.725376 -38.611268 -40.331672 1.951794 -0.796798 82.262336 13.186135 10080 9568 
24.264361 16.561693 45.086278 -180.781632 -16.821673 12.833573 70.480575 28.376824 6.406602 3.905820 -12.284886 -131.240918 14.596488 19.657354 98.328054 0.631486 10081 9569 
25.096733 7.873576 2.173283 -190.268981 -1.798600 39.405791 83.901583 33.616615 -8.890429 1.835628 49.965642 -38.340215 -26.742970 -1.600070 58.085387 -34.312974 10082 9570 
15.929821 -4.131628 -54.937077 -75.493139 -12.383336 37.404447 67.116124 26.494788 -22.865651 6.913930 61.972197 64.769459 -52.917710 -14.486846 2.020444 -45.405822 10083 9571 
1.537990 -12.217479 -66.267816 31.540599 -20.422278 27.067482 31.935969 6.825533 5.750265 20.746473 35.493417 -42.227819 -21.096673 21.514268 -23.157144 2.977211 10084 9572 
-24.635773 -50.425847 -45.579051 158.268964 -11.867100 4.582760 -1.411300 -28.932653 32.042297 21.291325 24.140582 -150.158474 16.149044 46.999043 -36.379582 45.915766 10085 9573 
-46.292834 -47.371296 11.987287 232.733981 -19.624069 -44.759001 -22.311038 -64.363030 30.344410 7.315125 -0.832814 -130.069785 26.695347 40.894071 -34.479080 60.132726 10086 9574 
-37.233397 -7.204963 45.656618 119.051669 -3.740324 -46.520513 -18.643077 -51.366014 9.751674 -27.020560 7.739791 -24.736940 6.674840 14.163477 -31.232094 44.659812 10087 9575 
-2.223352 21.828904 -1.031696 -2.619939 8.258224 -15.978868 3.793535 -12.026808 -3.771429 -42.075746 28.009697 75.180780 -7.647559 -20.561791 -45.938042 16.804090 10088 9576 
25.857248 38.237263 -44.039002 -55.007617 -6.306532 7.869548 18.456824 14.932268 -19.675848 -21.520034 38.827453 118.927820 -3.289904 -42.619504 -55.063147 -15.586836 10089 9577 
11.546014 1.075990 -48.536214 -57.258824 -1.822998 35.491827 49.429419 10.074786 -56.743414 -3.287368 28.897882 121.579267 16.260210 -29.605583 -25.661608 -51.439386 10090 9578 
-4.580354 -16.760532 -7.372659 -4.079617 -22.712795 6.336978 61.296210 -12.127230 -76.074506 7.366007 13.447657 94.222367 36.333068 -3.449353 -4.491822 -67.353417 10091 9579 
8.043983 1.145248 28.946573 -40.300121 -46.187149 -7.821674 60.114618 -3.941479 -32.048950 33.793650 31.812193 33.884655 6.988008 -17.867477 -9.775192 -46.786887 10092 9580 
3.002982 -8.314611 5.241787 -68.773817 -22.291907 14.564940 83.241356 -6.670730 7.577352 23.891592 18.709779 -27.853349 -11.620114 -26.550476 14.368747 1.476470 10093 9581 
-8.523055 -7.061428 -3.405632 -37.195468 19.250481 4.736962 58.774964 -26.576824 -10.614125 -80.279719 -47.924445 -35.545720 31.835270 29.179333 68.456206 44.893200 10094 9582 
-12.471465 16.777034 27.959410 21.774907 10.749722 -13.488634 -10.810351 -40.490622 -10.404143 -93.379204 -58.241578 3.218616 19.172156 26.750000 64.095463 48.788689 10095 9583 
-5.126086 26.888216 13.189863 3.509964 -1.223736 3.858975 -20.082597 -21.014598 -3.186166 -18.297422 -49.950154 32.450207 -1.556789 -11.839204 28.260762 24.118766 10096 9584 
6.448483 24.154377 -14.384852 -46.363992 -11.600835 18.032178 5.786820 17.927819 0.288561 8.364078 -79.354705 -0.892401 16.722906 9.378982 30.186496 15.306083 10097 9585 
-9.795357 16.375223 -20.650884 26.769424 -28.186934 1.400909 -0.758697 14.846317 7.366387 34.055180 -56.937574 28.402991 -22.937539 1.379663 7.891741 0.779152 10098 9586 
-41.748049 -5.891473 9.829276 183.575522 -33.472497 -41.885786 -42.284380 -28.122612 -0.249546 40.324195 -12.253588 70.036844 -46.499070 -25.613607 -14.821537 -10.923691 10099 9587 
-40.479755 -9.180507 73.363121 209.867614 -48.304610 -72.751248 -72.280128 -40.234489 6.248467 12.056677 15.888847 -68.017842 5.868273 0.310731 26.624363 1.020484 10100 9588 
3.989857 7.538011 48.932723 43.946234 -31.316855 -38.473520 -38.589269 3.972818 22.790313 -13.856861 -21.693544 -185.643016 60.600990 46.883581 70.455755 20.462781 10101 9589 
39.188322 14.032722 0.587442 -90.464017 2.803590 2.507545 -9.589061 40.933456 35.568713 15.686944 -16.603307 -138.569162 46.258338 18.289009 24.611318 14.758148 10102 9590 
44.173639 10.873429 20.871965 -153.611074 19.193429 14.149736 -12.141195 56.490071 32.353699 16.880394 26.351234 -109.571288 45.268801 5.731751 -14.818771 -2.195819 10103 9591 
31.381655 -2.774634 21.901097 -144.821038 16.611035 14.128296 7.241073 56.332516 18.704476 -1.932992 28.321514 -40.034363 32.815516 4.690388 -30.379923 -12.184616 10104 9592 
21.887878 -6.186378 -19.279788 -91.316416 1.520129 14.900044 33.418891 45.055639 13.073255 21.748334 69.770718 35.377610 -7.303990 -34.635284 -70.030225 -28.000417 10105 9593 
16.092518 3.398670 -39.681438 -41.290596 -16.694474 14.960604 31.172536 32.042180 14.929726 26.729477 43.405872 -15.069402 12.391929 -10.379102 -62.621991 -9.386509 10106 9594 
10.775819 12.282729 -49.253810 -61.495401 -3.562161 27.068035 32.903101 31.281688 14.359877 20.632403 14.379666 25.945880 -10.913465 -3.935516 -60.164513 -0.304332 10107 9595 
9.345823 8.866642 -38.381447 -81.453593 4.403368 29.497384 38.937439 28.784385 8.739819 12.571786 34.619515 128.328251 -69.131410 -28.854665 -69.369091 -16.904205 10108 9596 
-5.677805 -10.896466 23.379920 11.985547 11.251222 1.163917 -14.471252 -16.735084 10.799144 18.029090 15.339953 90.504747 -61.356939 -16.123936 -47.592600 -9.599459 10109 9597 
-9.528473 -12.660947 84.920076 30.151362 38.630350 -18.207002 -54.388962 -58.916404 20.275666 14.389109 -2.764336 -14.168622 -23.930244 15.011881 -16.800911 7.987458 10110 9598 
-5.771103 -4.931086 71.789429 -11.104232 56.872047 -24.337266 -13.578187 -68.939604 9.506111 1.372137 4.170230 17.161409 -24.766112 5.276889 -13.484094 0.763431 10111 9599 
-14.324924 -2.609577 16.502939 36.361746 63.797715 -35.742685 2.142685 -66.127901 -11.685651 -5.771834 36.959651 97.248212 -35.796527 -27.220025 -26.140020 -27.593806 10112 9600 
-19.872133 9.027197 -0.803470 116.773327 19.994867 -52.378375 -16.624736 -56.116677 -11.034725 0.168408 59.893618 123.300616 -37.351737 -33.971465 -49.783287 -51.221428 10113 9601 
-30.179455 -2.859959 -7.783026 173.645483 -8.084600 -50.894102 -22.236401 -51.607941 10.392750 27.032337 11.473243 74.832300 6.363924 -9.974348 -69.284132 -50.836073 10114 9602 
-36.474129 -29.534370 -17.466429 154.376291 7.449087 -24.524395 -18.172370 -35.653684 34.524482 39.743851 -45.560878 30.278056 23.650480 15.255766 -77.647364 -20.244392 10115 9603 
-24.444864 -32.487301 9.696189 6.192171 53.913444 8.251928 -6.079162 -15.042405 42.365374 40.900927 -30.006409 12.729036 12.688387 15.551267 -98.172761 3.944178 10116 9604 
-11.727448 -23.729260 37.101592 -49.469473 76.268750 24.466224 -40.655257 -12.255128 57.071525 53.101358 -1.158927 -212.853482 70.159443 47.024806 -48.157855 34.813131 10117 9605 
-8.241677 -6.008895 22.759470 44.986716 35.267533 18.473971 -101.646012 -5.591105 29.492439 24.630557 -6.059126 -242.435745 58.091541 52.893637 47.509713 35.876985 10118 9606 
5.437231 15.707741 7.082416 42.688986 0.779718 15.026623 -107.514201 20.791486 -45.355194 -35.478464 -10.930129 -49.774538 16.467147 4.093586 114.696287 6.281305 10119 9607 
5.019618 -3.206021 -36.230033 -18.548956 26.363608 47.588638 -54.260996 33.274143 -73.427756 -63.390884 -23.646118 24.951138 -12.072943 -22.135262 159.837145 9.884680 10120 9608 
-8.422265 -34.085332 -74.682138 -69.160587 77.293031 84.128480 -9.014409 33.943221 -72.463545 -70.563376 -69.375096 121.405683 -82.316360 -17.576089 169.791220 21.097563 10121 9609 
-18.985328 -17.865363 -48.064156 -95.056925 20.593618 89.282442 17.329964 52.765747 -51.154021 -66.157027 -86.163376 75.835785 -72.070327 8.530786 150.556628 40.621551 10122 9610 
-34.848336 7.021024 -14.508519 -90.564996 -27.893898 78.799893 24.126262 57.868571 -21.404531 -58.380067 -58.404028 -24.800253 12.672416 9.769005 103.540333 37.007125 10123 9611 
-24.734888 18.302064 -16.067572 -76.572099 -41.653138 56.324523 25.129354 59.271756 -17.110394 -40.688456 -24.503966 -45.230633 59.202845 -6.294005 60.379024 14.245585 10124 9612 
-15.179500 18.213394 -21.599488 -35.562553 -73.125627 26.130406 48.486340 52.637028 -23.633941 -32.774866 -0.931278 -46.121093 61.860632 3.556719 37.883510 0.160316 10125 9613 
0.525281 0.558423 -23.699970 -60.373337 -29.607215 8.127571 71.433478 33.035768 -15.185194 -14.116510 21.513951 -7.956875 11.639340 8.628173 3.102405 -7.625289 10126 9614 
24.139723 -13.144315 -39.617217 -56.786421 6.320309 -6.715423 71.824953 13.978391 1.784672 26.204444 47.887164 39.268292 -60.041380 -4.508444 -35.925309 -14.669440 10127 9615 
35.799441 -12.350313 -18.408257 -14.903739 2.612564 -31.467577 46.384956 -7.667076 0.332998 28.899543 54.772237 23.998882 -17.977634 -6.211935 -58.094326 -25.719765 10128 9616 
58.723647 -11.163652 -13.127842 -26.304706 1.753390 -42.368898 41.882718 -9.394658 4.566059 4.162047 28.235354 -12.058420 44.386089 3.331901 -54.078817 -18.544213 10129 9617 
68.765407 7.891260 -45.977377 12.934653 -21.862478 -53.790332 39.083617 -7.044751 24.928509 -15.910533 1.309135 -19.730457 47.412151 5.907129 -38.379966 -5.535968 10130 9618 
60.554086 36.699478 -45.372827 -11.985738 -39.333808 -43.044102 43.180981 -0.698069 44.831157 7.375783 2.793244 -68.406693 34.471300 7.743479 -35.237549 6.429278 10131 9619 
50.674521 39.818327 -24.948110 -94.490138 -8.762388 -11.234517 49.381364 -0.439060 35.361788 29.863948 14.714744 -41.149228 -13.192607 8.889795 -36.286044 1.797603 10132 9620 
28.627718 31.559021 6.363411 -8.577341 -12.809522 -20.873054 1.053132 -25.343365 11.889319 0.166123 8.958586 14.514185 -40.883224 15.210152 -14.457558 4.602417 10133 9621 
-10.390858 10.372739 60.993068 161.614337 -25.872564 -55.614868 -73.902088 -67.199766 3.321297 5.757818 -8.079825 21.653102 -49.621487 4.200773 12.232646 10.535677 10134 9622 
-33.124180 -18.249474 77.199930 197.698194 17.292379 -66.005936 -90.382209 -84.428705 -13.047521 25.593291 3.632801 57.969826 -56.663150 -24.013307 12.174686 -5.646627 10135 9623 
-30.725880 -35.581952 46.021362 139.872439 39.563310 -51.575887 -52.888559 -54.684833 -31.200464 0.773834 14.141511 114.711775 -41.525765 -29.022068 -4.812519 -23.066305 10136 9624 
-22.346970 -30.707926 32.504881 63.016789 5.423214 -23.934547 -3.224650 -20.730790 -22.906693 3.701190 31.588794 109.001701 -30.532520 -24.243637 -35.586240 -31.022595 10137 9625 
5.414409 0.882955 9.471801 -73.848713 -46.565713 34.684121 38.720269 31.240871 2.178703 21.531523 91.162384 76.599982 -51.125760 -35.049155 -74.618726 -30.678952 10138 9626 
38.482936 32.048122 -26.555294 -142.174665 -73.979621 78.096615 5.895556 88.186351 6.874095 27.771521 106.176298 74.278012 -23.415872 -41.589259 -105.424575 -44.670221 10139 9627 
24.567004 26.781335 -37.139441 -41.118912 -87.734003 59.431861 -19.416192 74.628348 10.266820 28.704769 42.854571 62.051612 20.154322 -27.880506 -108.691420 -27.460169 10140 9628 
-12.526117 -0.331792 -14.526966 66.664352 -71.658642 24.461395 -12.742278 20.660047 26.255008 5.948624 -39.502864 -33.614015 49.895861 15.065650 -57.372567 33.324305 10141 9629 
-29.393925 -12.607865 8.429918 73.330235 -19.317964 7.300920 -15.869658 -11.871661 21.133664 -6.497665 -56.980187 -78.248287 43.870964 29.671922 -10.888209 57.937797 10142 9630 
-35.240456 -15.602523 13.963987 67.751612 29.235961 -16.918906 -11.122834 -32.066842 4.513543 4.778097 -4.271669 33.716135 -45.544334 -27.057007 -0.696372 34.561605 10143 9631 
-33.264159 -7.227394 33.621674 93.649463 31.245529 -54.707028 -20.642737 -42.675348 -8.786929 1.182054 -19.287461 53.016660 -40.014024 -40.608719 38.869544 15.628875 10144 9632 
-21.540781 5.528494 26.765405 39.005683 35.749225 -48.481487 -11.216640 -25.809899 -29.317538 -30.536783 -90.491656 -5.393181 59.772637 3.183290 85.094726 7.688505 10145 9633 
-10.543765 9.768486 4.013770 -45.577413 56.536858 -12.745381 -0.785548 -0.667008 -43.168693 -52.417815 -112.757465 -52.651580 127.887616 35.900618 99.951891 -2.744571 10146 9634 
-16.826618 11.319317 21.653940 -42.124050 39.850749 -8.799837 -2.527943 -2.545558 -17.895022 -29.321932 -84.304014 -121.261479 78.079230 57.758004 102.575138 14.370076 10147 9635 
-12.253788 10.992891 43.285397 -22.994237 -3.321772 -15.930316 4.816499 -4.594674 3.104974 -3.508411 -36.183874 -160.746736 23.458065 64.258095 87.647876 21.970011 10148 9636 
0.145454 11.486291 34.268462 -16.526940 -38.521782 -9.173227 14.542746 3.778994 -10.593665 -6.635323 18.119168 -80.610707 42.661196 23.942472 26.836949 -13.720089 10149 9637 
8.072094 15.321660 -4.160745 -77.874514 -18.490344 14.747770 40.423945 21.960134 9.908570 11.910332 22.106304 -12.973195 3.342604 -11.214349 -17.171578 -5.908688 10150 9638 
20.000029 12.295892 -30.676677 -91.641713 -23.789422 27.789040 45.357840 40.665010 41.577614 28.114997 -18.934902 -55.116452 -13.200054 3.075678 -14.602735 29.085855 10151 9639 
8.442709 0.225975 -20.668714 10.369256 -63.249795 17.332782 24.468904 23.078882 21.115445 2.709027 -18.483132 -35.465100 2.087726 18.385393 -11.082881 20.733523 10152 9640 
-9.109118 -7.981818 3.292082 55.725166 -45.726835 0.261821 14.168255 -10.629553 -2.188649 -14.152589 7.358045 -25.611290 5.039090 26.962806 -1.948446 4.541032 10153 9641 
-9.060677 -11.996466 -5.401507 12.607556 9.504217 6.661347 18.728904 -21.043375 2.107250 16.037811 55.385613 -0.754766 -31.773551 -10.646126 -17.501323 -12.854908 10154 9642 
4.765774 -10.313041 -40.620611 -59.236204 32.312524 37.861033 31.645756 3.584768 4.979552 29.285441 65.488952 23.650900 -60.358751 -25.431242 -19.982518 -17.632334 10155 9643 
-6.024446 -16.256897 -20.943720 -11.840294 23.502736 24.684197 13.925998 -7.047575 9.893819 10.959825 42.274659 1.223979 -42.726396 -8.583423 -7.988023 -5.054439 10156 9644 
-22.315920 -21.304573 25.929901 47.820441 35.016357 -21.181067 1.594502 -45.559640 9.388060 2.409522 50.771185 18.116954 -27.364828 -17.478153 -28.074943 -7.767797 10157 9645 
-13.477255 -12.213636 23.702839 11.539440 31.080257 -42.477389 42.206648 -40.360904 -0.448863 -19.028248 35.535228 12.091998 29.258448 3.832340 -42.656586 -18.584318 10158 9646 
-14.001161 -14.651346 -2.950484 11.494156 33.109394 -38.590873 55.156453 -29.566139 3.595081 -23.486995 -6.064310 0.602835 63.651612 27.687096 -37.814119 -28.171200 10159 9647 
-1.522532 -11.726537 -30.327265 27.699996 52.255950 -22.614818 2.811771 -16.576565 2.479646 -3.595111 -20.763931 35.794613 37.534969 16.602981 -35.978583 -32.074583 10160 9648 
3.632993 6.394479 -34.404379 78.679759 29.434151 -20.672781 -52.715333 -10.348888 -8.365145 4.766185 -0.919317 88.531641 -13.135099 -18.862917 -32.359050 -19.656299 10161 9649 
-0.549434 13.868930 2.291019 88.059755 8.817611 -27.955369 -62.893633 -21.638878 -2.410564 7.057634 -39.063325 23.363652 -17.592423 -7.324519 17.311515 18.658031 10162 9650 
11.504848 13.282819 23.011750 -6.561182 0.040294 -8.191173 -21.549842 -11.537514 -1.577280 12.426371 -71.554086 -8.477848 -11.246739 8.337610 40.212230 31.879744 10163 9651 
9.406200 -1.285855 9.646389 -64.152060 4.536001 23.959639 8.700687 9.188999 -5.336103 20.568797 -24.291443 24.585636 -29.622145 -17.821858 22.103839 9.813277 10164 9652 
4.852823 -20.382747 -8.979405 -108.309096 34.137272 47.596647 24.115089 26.969417 3.146914 27.359190 17.729885 -16.117405 -25.951029 -24.474688 18.029529 0.277604 10165 9653 
6.398628 -16.491524 16.708703 -101.654261 25.468326 32.869192 16.047756 20.653180 -16.231024 -0.306326 48.703095 27.308447 -13.204704 -22.296951 -1.116808 -22.855729 10166 9654 
13.262942 -3.185324 45.713997 -45.348968 2.450874 4.523733 -33.494416 16.077163 -31.981105 -29.885671 22.760980 17.496058 48.229254 7.202544 -2.626716 -31.195346 10167 9655 
22.097513 9.486342 19.690323 -75.404363 6.267340 24.723430 -48.256560 41.395975 2.122616 -1.852377 -56.706983 -91.460020 51.942224 49.254459 33.183559 13.516521 10168 9656 
14.008397 19.654591 2.857344 -77.222571 -4.643185 38.041285 -44.714585 52.018724 41.650853 39.246703 -89.315614 -115.979394 -46.436835 64.623902 52.234635 53.975751 10169 9657 
-4.139478 11.267050 -9.473339 -14.375843 -18.460761 39.467610 -44.383048 40.097810 54.434102 49.739768 -75.821133 -81.593139 -102.830475 57.222119 33.748707 65.100051 10170 9658 
-8.321741 2.294607 -23.745831 49.752263 -18.359837 45.518508 -85.474616 38.336647 34.394910 15.456745 -52.045519 1.933826 -61.555784 27.109961 -8.591156 43.297016 10171 9659 
4.812130 12.494742 -23.499592 73.072055 -19.879675 33.852031 -135.946387 55.094697 20.870437 0.569410 -31.554664 12.576723 9.001476 2.781348 -35.374754 21.130025 10172 9660 
8.253463 16.531018 -20.432077 24.487434 -2.874225 25.871197 -106.363460 54.526648 30.718231 42.007564 61.520104 -92.781933 13.672250 -35.154527 -29.470248 9.488559 10173 9661 
1.597170 12.125929 -3.361332 -0.822521 -5.702822 8.573274 -44.908015 32.498317 -8.863401 8.054618 187.493791 39.598377 -43.450060 -87.404418 -57.647159 -37.781748 10174 9662 
6.676296 10.055663 24.912781 -20.243058 -19.025832 -5.215511 -4.410015 7.249676 -66.182179 -86.631811 168.291169 257.944285 -49.252024 -80.526043 -70.548565 -73.094831 10175 9663 
13.347784 -0.812056 9.893747 -29.849386 -1.583153 1.226873 18.393089 -10.616898 -68.223203 -80.094163 104.346256 210.427984 12.642078 -59.270581 -46.113926 -73.714445 10176 9664 
21.567974 -15.115284 -44.611940 -18.660730 23.863513 -2.151116 52.508996 -17.401413 -56.272124 -39.830485 58.096372 167.651147 10.102366 -68.322548 -14.647965 -56.776762 10177 9665 
23.101076 -19.478989 -72.871803 -60.018628 52.766329 -0.742975 91.443234 -14.198245 -49.470492 -53.688662 -3.040761 129.786287 16.210802 -51.726371 43.812195 -31.882998 10178 9666 
2.392426 -20.943934 -84.283275 -89.587714 63.459162 17.998384 125.347996 -14.383045 -27.877644 -60.384966 -58.481922 -23.096055 72.941561 3.260167 95.440158 -1.801300 10179 9667 
-12.364781 -16.007628 -48.892277 8.569940 20.360020 -13.000554 97.490526 -36.155246 -10.654866 -27.031289 -100.563431 -75.789634 51.329533 31.116126 109.030953 22.562608 10180 9668 
-20.429853 2.945572 64.944648 151.124440 -61.261216 -89.192155 22.055976 -70.187412 -1.161767 9.512108 -62.937389 -39.189957 9.849963 6.488107 72.524874 4.914062 10181 9669 
-17.073346 -0.400120 105.275324 129.622904 -87.289847 -85.412133 23.896227 -68.619009 24.499852 17.643508 19.145164 -131.391612 30.348844 4.934035 39.476655 -4.656445 10182 9670 
-2.422494 -1.727426 27.470389 49.146658 -73.993329 -30.883950 64.371479 -31.961327 22.337855 17.563268 51.441519 -88.388114 25.705000 15.172716 -30.235208 -13.597037 10183 9671 
-3.469102 20.731182 -14.697279 -20.190519 -28.335781 -11.728916 77.833793 -20.143375 9.439175 9.317143 -11.917340 26.191155 7.621317 43.560081 -86.033499 1.821968 10184 9672 
-17.581659 10.512560 -3.006976 -45.966891 22.264286 -7.072468 63.981402 -23.130254 31.770401 21.045623 -63.189666 -62.590647 8.948272 74.987486 -65.234190 54.262719 10185 9673 
-39.978073 -11.075461 39.776111 110.202041 -3.058372 -40.385002 -1.330987 -54.150257 33.137929 26.549770 -71.981479 -22.154965 -25.994381 37.322980 -40.050965 63.171111 10186 9674 
-41.458706 -15.834074 74.090689 167.679148 -11.446369 -61.566680 -36.703701 -74.760307 3.547822 14.583204 -49.622105 33.794889 -34.282951 -3.981010 -5.123983 41.084133 10187 9675 
-10.764966 -14.021360 70.026411 10.412861 15.486804 -19.036120 -10.364841 -41.738789 -47.099541 3.024020 30.512074 79.188704 -40.747533 -37.137033 13.827645 -1.568336 10188 9676 
15.301843 -4.424132 17.213098 -70.669780 33.459855 27.058142 -22.076590 4.137563 -43.188328 1.548461 52.991418 28.670799 -53.389425 -34.428716 39.371595 8.424196 10189 9677 
18.806773 15.415170 -34.843216 -29.519547 17.025861 49.734610 -87.782114 51.162463 11.598032 18.381043 -10.163638 -94.849896 -40.200619 7.642389 57.273748 50.318939 10190 9678 
22.967846 36.494810 -14.614222 -70.509208 -1.728886 57.712834 -102.027263 71.704088 14.473102 6.508602 -40.346347 -57.191727 -31.077689 24.857181 50.766433 32.010444 10191 9679 
30.309381 31.708186 21.389557 -120.985949 -8.878922 45.182919 -58.173268 59.448096 10.216911 -4.793864 -26.297223 -52.362776 -17.827939 29.200732 58.100328 3.763831 10192 9680 
23.515055 9.232292 31.681784 -43.180289 -37.971193 19.339203 -36.758361 34.141509 16.690975 -0.922236 -39.754139 -45.153617 -4.925256 29.280597 51.042236 -6.258560 10193 9681 
16.991987 0.079831 -1.521497 -5.166320 -32.544757 10.232886 -6.311727 18.239596 18.726762 14.576621 -23.242815 -52.366222 11.820227 24.588971 13.456598 -7.560143 10194 9682 
8.990672 3.535318 -35.345495 16.120417 -10.945178 0.558033 12.511641 4.574591 22.018142 26.763883 21.405074 -55.265157 26.793292 0.799324 -24.287091 -18.227465 10195 9683 
-12.530018 -6.379200 -58.489689 95.411617 11.256946 -14.980072 1.575952 -15.865535 20.507447 15.538758 -12.787836 -56.784097 50.984496 5.256938 -9.331468 -13.384239 10196 9684 
-24.119139 -10.112972 -60.265765 100.592063 30.247701 -23.106321 9.015860 -22.251427 8.397806 -6.460216 -80.588535 -41.770233 68.112266 25.926512 23.938154 2.444247 10197 9685 
-12.440739 -7.359833 -30.606239 36.252341 23.142855 -25.243343 32.186734 -15.931776 -8.003537 -18.562369 -49.284626 19.292320 47.682337 6.516551 6.201926 -3.842603 10198 9686 
-0.921428 -12.129085 -35.042580 -34.358405 30.762013 -7.962925 62.031106 -2.378694 -2.888109 -12.714723 38.353996 50.389278 14.074545 -22.933831 -51.419224 -12.861931 10199 9687 
2.905035 -6.816413 -46.884081 -61.614322 17.123464 10.302528 66.581580 18.402208 -0.918070 7.561647 119.035994 88.983909 14.352584 -58.517344 -130.405915 -40.092806 10200 9688 
-2.996274 -8.228534 -38.314477 5.591598 -27.631986 6.518265 41.817083 23.244326 -2.177207 49.432784 164.429395 165.226881 -32.289518 -84.863221 -190.386056 -69.373058 10201 9689 
-16.646583 -8.596407 -23.813538 122.117456 -43.321992 -18.127143 -10.414133 -1.197661 13.347741 63.227830 109.621409 154.941551 -66.534289 -56.258769 -162.401123 -55.944350 10202 9690 
-24.511439 -5.612680 1.083403 134.554810 -16.376093 -25.979638 -48.633456 -14.524907 18.301084 32.564370 19.181177 -1.014792 46.148026 4.355603 -88.902148 -30.633318 10203 9691 
-24.083145 -8.823023 14.925273 14.415508 31.846568 -4.037613 -25.305009 1.061440 2.409810 4.335447 15.731985 -7.313625 98.481989 6.042633 -77.638934 -42.049305 10204 9692 
-27.708244 0.056448 19.336269 -35.391208 25.767118 9.054665 -8.296006 17.180958 -3.647555 1.455843 33.647021 87.340198 31.186863 -24.851447 -83.972211 -41.158712 10205 9693 
-28.695173 2.187923 47.700687 39.384983 -35.579032 -3.856287 -25.557698 4.414596 11.060306 3.432263 -36.169224 -7.551126 21.622918 -3.771488 -1.725248 13.101600 10206 9694 
-5.320885 -7.989772 60.444740 25.451586 -38.111738 -7.232974 -19.310330 -7.930626 7.954358 -14.371074 -95.215412 -94.794209 28.783304 18.151158 104.125535 45.366340 10207 9695 
11.760727 -8.529815 23.536517 -45.173257 2.619961 10.437436 7.872948 -2.524518 -3.048448 -20.549458 -90.946111 -48.133946 -48.229967 7.101289 161.328190 42.478452 10208 9696 
12.840561 -4.662848 22.770265 -21.018762 -0.485634 -1.850243 9.923238 -17.516577 -3.479230 -19.131913 -64.716919 -42.730628 -96.246891 5.366319 180.427935 40.511328 10209 9697 
10.984723 -3.727123 36.341244 -11.999581 2.544250 -20.604957 16.143549 -29.682107 -19.673483 -39.181807 -39.118912 -50.586323 -67.072847 15.634307 170.231937 29.767128 10210 9698 
11.347950 -10.792663 5.287668 -4.940098 17.585004 -20.432384 29.070857 -27.126334 -22.562862 -55.385884 -33.967720 -86.971579 -30.049087 33.172673 162.614977 33.149482 10211 9699 
25.162424 -4.931848 -23.563217 11.057898 7.818306 -18.854822 25.592067 -22.280809 -20.279362 -66.376969 -23.069408 -123.052749 29.732834 48.229309 126.971526 27.844819 10212 9700 
35.320761 17.283294 -28.997798 -13.050392 -12.180226 -10.515980 21.308507 -9.168166 -25.000494 -56.074805 -35.331805 -98.207282 92.374852 59.818051 54.083807 8.337675 10213 9701 
45.826622 17.283029 -20.157628 -119.992866 16.197687 22.613534 21.897471 16.332152 2.640329 -11.945869 -52.716612 -118.425275 78.859034 67.014801 11.099711 23.473881 10214 9702 
55.056502 10.755042 -5.045842 -224.136514 57.710642 55.444297 12.690606 37.525265 20.515564 10.463395 -52.138705 -108.965338 45.012004 55.550877 -5.076610 34.638812 10215 9703 
46.744577 18.066002 20.987092 -180.313490 2.254791 50.485909 -0.216747 41.991865 9.016273 -1.843146 -17.148581 -23.296677 17.613439 24.346168 -22.311146 13.623668 10216 9704 
37.355141 26.325186 18.604376 -142.279964 -43.781763 45.389498 13.251439 45.136087 1.434052 -1.714095 53.638155 47.581635 -47.156551 -9.974559 -33.702063 -10.106573 10217 9705 
25.299017 22.532442 -7.038844 -110.852542 -24.663434 35.905762 21.486839 37.330759 4.803328 16.216546 55.133321 49.359802 -58.786332 -15.731705 -43.983426 -7.011533 10218 9706 
-3.291754 9.371839 -9.318103 -24.869236 5.944402 8.327147 3.645882 10.189823 9.401735 21.969681 31.799655 46.067011 -42.423114 -15.499294 -54.856424 3.540750 10219 9707 
-20.046767 -2.620589 -20.752237 -21.787835 32.558897 12.234962 10.509862 9.903706 10.635168 19.690127 8.975615 25.501616 -20.545997 -5.003208 -46.339227 7.085906 10220 9708 
-24.204423 -17.057227 -40.948266 -30.273427 25.052784 24.900971 33.744851 28.784737 13.625801 28.851953 -2.365280 2.663064 -5.989530 -1.045264 -47.287473 11.546729 10221 9709 
-40.885719 -34.857567 -39.387016 16.667341 36.489773 18.714766 31.975654 11.282769 3.081126 28.823896 1.478513 56.520760 -5.461728 -13.153044 -71.669075 0.379552 10222 9710 
-47.933845 -42.712759 -11.695863 79.881522 45.355075 -2.984433 -0.429264 -19.480434 -4.814750 18.747025 -2.049593 65.406773 -3.624971 1.771054 -72.943773 -2.491765 10223 9711 
-33.698297 -17.289337 35.326399 134.547529 20.558989 -27.185169 -77.307122 -34.952991 -8.174520 11.393587 30.731694 81.270981 -28.324852 -5.709246 -63.753488 -17.434156 10224 9712 
-15.673406 16.866620 64.396890 141.028844 2.048870 -44.126601 -133.030090 -31.511126 -15.908310 5.658080 57.520784 137.633672 -25.536109 -36.103208 -72.759212 -50.505697 10225 9713 
4.640068 30.716594 38.705151 90.361105 -7.998626 -47.904851 -101.830216 -6.689225 3.268343 30.321206 63.373291 116.958331 -52.569465 -42.950484 -77.607759 -40.793463 10226 9714 
6.820941 17.650390 -2.073048 66.003916 -18.330076 -22.486400 -62.450774 14.865051 15.292695 42.325690 66.281872 105.938458 -68.821933 -42.190148 -91.569955 -27.256679 10227 9715 
-17.030147 -7.757256 1.849641 108.829020 -19.236662 -18.445488 -48.414327 0.205220 10.587336 18.097230 82.135955 96.940191 -13.312064 -54.445990 -105.903008 -34.099651 10228 9716 
-29.858468 -7.416226 10.052433 80.225640 16.426477 -25.491521 -23.284596 -20.653740 10.753971 0.751326 58.706460 42.228753 27.087094 -45.247817 -76.325480 -17.954307 10229 9717 
-21.977265 6.155331 11.237589 55.797944 36.623160 -35.787692 -23.497176 -28.551892 -0.484865 -10.804017 13.747295 1.227273 21.549468 -16.362616 -19.979461 11.106924 10230 9718 
-28.262181 -4.662885 -0.882146 67.996429 41.325920 -12.780616 -30.566625 -32.167895 -10.896522 -24.180256 -1.714245 -21.246037 4.778400 -2.346305 33.148694 22.456271 10231 9719 
-43.538096 -43.953272 -60.045541 -23.385758 95.050469 59.098168 35.069007 -18.294976 -21.813778 -29.415656 -15.141196 2.550650 -16.485504 1.658760 65.965744 12.680979 10232 9720 
-16.960101 -39.079298 -80.026113 -125.786945 96.917132 67.872109 86.090208 10.973009 -25.008580 -29.078035 -34.295207 19.343366 -8.555445 -6.374772 81.086262 2.882412 10233 9721 
29.559509 17.501957 -23.326256 -112.350439 -31.922507 20.304998 60.709199 39.523539 -11.619924 -9.265511 -58.566164 -41.497127 39.094425 -6.743242 87.980916 0.616625 10234 9722 
47.305219 46.324323 13.678927 -40.058916 -174.793825 2.433662 54.080647 51.029964 7.078832 26.563416 -57.325711 -116.721307 37.378940 0.792198 93.851531 8.382101 10235 9723 
22.338273 30.831399 34.201258 54.590166 -220.328209 6.471286 44.960839 26.934988 -5.282089 -14.812647 -49.588273 -97.168076 46.105610 18.828385 99.087055 2.830035 10236 9724 
1.710270 8.536424 44.730424 49.688264 -147.566879 5.642154 27.957577 9.301765 -27.455598 -55.784129 -18.176070 -26.954659 48.084452 23.658602 80.640126 -24.012725 10237 9725 
13.648490 17.072955 41.588311 -8.907752 -89.770101 -4.445987 12.637226 18.176860 -7.728206 -13.028326 8.302404 -16.707626 -6.782837 12.361856 46.371084 -22.788348 10238 9726 
10.528489 18.338088 55.114838 40.698950 -69.086649 -32.688077 -16.236363 -6.669276 3.987977 21.667668 28.012373 11.622988 -44.816164 -14.526516 3.686076 -9.634402 10239 9727 
-4.894513 -4.220297 26.508226 59.471974 -10.720470 -27.664478 -10.759939 -27.720502 2.842944 12.646334 16.444377 44.512703 -31.242103 -27.593157 -18.397096 0.786000 10240 9728 
2.550457 -16.038982 -38.161024 -55.170181 61.436599 15.148670 39.830681 -9.596219 -0.717559 -25.731138 -52.409663 16.722104 24.744485 16.421694 4.173251 16.796825 10241 9729 
33.683412 1.698088 -53.911353 -219.883123 107.085480 34.118673 83.859179 13.349644 -10.308011 -27.302342 -53.578290 5.694319 45.184984 28.969499 1.291908 10.047933 10242 9730 
38.920997 13.773006 -22.465204 -189.443424 77.230304 3.397404 73.997019 4.589897 -2.676492 -5.655555 -15.003130 -24.139558 18.907168 20.535820 -1.388372 9.420118 10243 9731 
2.540098 4.789579 31.850005 49.699921 10.229709 -66.742223 16.067179 -48.434268 2.430124 5.055096 38.308642 -55.583581 -12.072642 6.603880 9.159822 6.098660 10244 9732 
-20.279864 0.376939 61.457542 189.245906 -11.591074 -100.310801 -42.474705 -76.423942 -0.196989 11.720478 67.089654 -43.960655 -20.533697 -6.334173 1.973276 -9.757894 10245 9733 
-24.401002 -23.393193 8.780069 120.259526 44.207975 -42.117694 -44.449145 -38.886537 1.386306 8.386834 54.070684 -0.754391 -18.913697 -9.419464 -20.038281 -14.717991 10246 9734 
-25.577049 -45.034591 -57.903234 8.712665 91.671304 34.661320 -15.769238 9.238824 17.196979 18.878771 34.023870 25.032332 -17.293546 -19.978834 -54.666990 -3.192580 10247 9735 
-21.287825 -35.389744 -57.502824 -21.847544 68.042074 44.491867 7.026028 16.467969 46.870473 30.973689 -34.899630 -56.049320 13.847569 17.889235 -56.870609 38.238592 10248 9736 
-12.823114 -12.453157 8.559318 -5.281662 13.033086 20.022185 -18.198546 7.141890 49.507882 33.076752 -53.642433 -82.895490 36.055650 41.461333 -66.582671 43.018979 10249 9737 
17.328817 5.957469 30.479543 -1.186157 -17.591764 29.115743 -101.530561 37.426910 33.129492 37.468201 -9.463891 -67.169997 32.850991 24.343394 -69.803820 18.645629 10250 9738 
32.449440 21.858772 23.895634 37.212445 -46.812660 28.666122 -151.993034 54.723281 22.127891 24.539983 17.826786 -89.127094 21.133860 29.360592 -41.755732 15.893715 10251 9739 
10.886973 13.276333 15.557993 72.425915 -69.969074 23.416744 -90.955407 25.360523 -2.893059 -18.857900 13.181976 -33.359066 -6.406529 33.538613 2.879439 11.916525 10252 9740 
-11.564928 -14.270129 -28.189462 34.835072 -19.933062 42.852274 -2.088941 -1.640825 -34.046502 -44.805440 -22.659995 134.837714 -53.494308 -2.219329 34.244704 -11.856844 10253 9741 
-7.162188 -13.957709 -61.909546 -58.085182 50.421440 49.384894 43.034333 -1.726041 -39.990903 -30.381596 -71.356492 218.987031 -70.977661 -31.769182 53.162610 -27.673806 10254 9742 
24.361664 5.987280 -85.567985 -203.457966 87.232163 57.840718 83.004722 30.599405 -25.094094 -2.226967 -108.071757 81.830518 -29.287870 -5.835044 101.515593 -12.830380 10255 9743 
30.490379 12.644116 -58.954305 -210.892557 83.038511 37.582405 72.614777 33.476673 -22.601498 -19.762451 -82.391179 -45.817809 12.010219 33.288265 129.314519 -4.040068 10256 9744 
3.544005 8.141853 -3.250605 -19.000232 22.737160 -17.179419 13.313962 -8.306724 -17.532452 -35.426541 -10.509343 -127.888399 42.533334 38.554226 108.293981 1.975194 10257 9745 
-27.256686 7.908092 46.256934 164.023058 -44.827087 -62.699208 -34.048043 -49.357060 -12.899190 -4.509007 20.464578 -99.234033 44.861014 17.454743 37.513923 -3.652027 10258 9746 
-23.063871 6.558170 40.631117 133.116416 -49.824867 -53.740642 -17.367034 -36.309289 -6.575721 -3.888156 11.474943 -93.321413 44.378463 33.579954 8.205318 6.146610 10259 9747 
13.376292 19.705375 -20.466397 -51.955091 -5.433732 -7.547459 36.956767 15.364244 15.761491 -7.523286 14.060772 -157.537595 32.705570 48.553430 18.162742 35.816876 10260 9748 
3.779829 3.498481 -31.065689 -50.618529 33.827138 -0.570676 42.454512 -1.305067 11.825040 2.013548 -12.436039 -45.423360 12.576631 11.591249 -7.497062 27.349993 10261 9749 
-34.235138 -20.150215 23.086910 153.081809 20.654611 -53.373771 -16.182827 -72.881378 -21.078883 -22.661067 -47.853703 78.015217 45.721362 -12.256076 -16.505993 -3.380856 10262 9750 
-37.631068 0.307256 79.953863 268.185733 -54.563799 -99.905801 -66.834495 -89.511687 -40.904212 -41.483774 -41.468252 167.756778 43.468988 -40.179632 -14.213125 -32.976772 10263 9751 
-17.471037 -14.841914 58.207245 143.936571 -60.915198 -48.326243 -18.872255 -41.717170 -30.087913 -20.044040 -6.898835 207.593029 -14.919145 -70.450101 -31.651172 -33.541823 10264 9752 
4.336551 -23.474478 7.241184 -7.769790 -9.537783 5.455461 31.237642 -7.488787 -19.216284 2.661326 74.761846 240.585558 -94.486428 -95.031567 -72.438836 -36.835614 10265 9753 
25.915758 2.095359 -7.198352 -116.118885 10.481302 32.448863 33.429918 18.946037 0.979115 40.384906 192.808313 143.858745 -117.040243 -107.147283 -91.766326 -62.077228 10266 9754 
36.509251 19.121840 -7.958419 -155.042490 0.993072 42.095674 19.642651 44.638421 30.444304 60.913411 180.304823 -46.782011 -24.317628 -62.869711 -80.867518 -56.825669 10267 9755 
22.392012 24.308890 -19.056010 -55.831857 -27.537994 19.965520 -11.377055 47.136494 46.821804 52.168585 67.716365 -94.650628 53.636751 -19.937104 -76.714018 -29.041756 10268 9756 
9.219962 12.502445 -34.813162 -66.732115 -1.784049 22.545512 11.620752 47.440656 40.248160 31.861725 44.735432 -85.675409 53.269381 3.279019 -61.087432 -26.630875 10269 9757 
-3.815021 -1.480177 -14.958436 -52.708912 1.042358 2.589370 52.244937 17.085882 13.962102 5.333401 42.916425 -30.547122 34.227857 21.466336 -54.345326 -33.013673 10270 9758 
-38.494301 -28.624481 24.081476 88.900587 -6.273612 -34.492173 38.075693 -43.173189 11.134893 15.772758 24.881517 0.765305 6.321900 18.835835 -88.397081 10.684873 10271 9759 
-42.331156 -23.023136 48.436923 120.902587 -6.344430 -49.251378 1.275391 -49.664801 7.388471 9.805941 -15.736665 -0.682900 -15.281823 8.269625 -56.900765 63.138116 10272 9760 
-16.230037 1.103747 33.722717 33.217548 -18.176831 -18.173593 -8.760441 -6.703112 -3.973237 -15.417040 -61.154502 -50.518106 -39.293305 -3.028137 89.210065 84.174262 10273 9761 
-12.025656 -3.935984 -1.711115 -39.563160 16.079761 23.488916 1.273180 16.394058 -9.636746 -37.295016 -58.672915 -114.133854 -53.999510 9.481448 177.642059 86.614535 10274 9762 
-4.409285 -1.621981 -2.662291 -69.769018 33.352981 25.078738 3.924236 16.106620 -10.518961 -45.298156 -64.861578 -124.214192 -50.594216 44.888699 167.845340 82.753064 10275 9763 
16.449050 17.904399 21.208123 -71.984366 19.144404 -0.351015 -12.760220 10.389625 11.008382 -16.049657 -55.352466 -69.272757 -76.702212 42.818721 96.407971 67.142018 10276 9764 
30.265514 27.539736 31.524471 -66.831020 -1.464063 -11.498593 -23.740140 14.204095 32.563125 14.333097 -26.841504 -1.663877 -65.404528 17.052105 0.936705 29.024878 10277 9765 
24.411892 10.492890 11.512414 -101.379515 12.309716 14.185823 8.812554 19.654225 36.961244 17.371920 -30.900142 -20.200082 -11.299225 19.501542 -23.443005 12.007747 10278 9766 
19.080471 12.508009 -21.670631 -109.454339 0.222433 24.737849 46.696563 27.879644 25.476976 5.780694 -55.478988 -42.088262 43.196489 27.578340 -8.388576 3.923326 10279 9767 
8.615650 16.644269 -16.645530 -29.214514 -38.990154 3.579446 39.685153 16.325679 9.729351 9.229183 -40.774722 -35.824880 39.756190 4.730391 23.467281 -10.312793 10280 9768 
-7.483918 -4.003242 -8.739524 36.502635 -22.615529 -9.109219 24.240898 -8.792100 -2.497753 27.649562 -7.111721 -87.021393 32.890175 -0.929234 41.317338 -4.296975 10281 9769 
-3.215729 -17.107758 -24.631843 36.693519 -4.739595 0.261427 21.363567 -8.623588 -33.320945 28.993216 -0.598970 -68.533456 75.956009 15.348635 -4.689816 -13.154674 10282 9770 
-9.094323 -34.779899 -5.265105 38.893917 32.659737 7.117117 -1.875883 -27.655560 -38.478282 15.340458 12.737202 53.514597 55.833905 3.958008 -68.365044 -34.540844 10283 9771 
12.070632 -23.743100 17.965364 -26.347044 67.996301 13.878438 -34.503510 -27.317081 -11.863709 9.201945 17.252788 116.347840 -6.158227 -17.336434 -76.868736 -30.575467 10284 9772 
36.551274 10.091994 15.831417 -42.770385 58.156240 21.545282 -105.000535 5.594713 -10.452083 -5.844109 1.586133 132.021894 -43.471765 -29.965990 -23.747547 -20.126534 10285 9773 
9.584674 12.304309 -0.016824 73.080937 33.535132 14.578657 -153.028068 9.961183 -12.610565 -28.112283 -41.403500 115.341458 -20.886600 -18.031525 20.710199 -15.007183 10286 9774 
-9.003564 4.371388 -24.721745 91.327377 -10.081506 9.982569 -78.501533 16.627014 -12.805383 -29.583434 -62.775485 78.750294 16.154756 2.598882 16.409309 -8.748939 10287 9775 
0.826758 9.181245 -19.869946 12.071325 -19.314213 13.586540 -30.760174 34.278464 -10.951966 -16.980132 -15.682819 54.982673 21.285044 4.305440 -23.158716 -13.799524 10288 9776 
-6.190886 13.208039 0.873654 6.068932 -12.731263 6.959921 -30.115591 21.927194 -4.191278 -1.124269 28.531864 44.320638 -7.023080 5.132449 -48.105772 -17.540552 10289 9777 
-2.604983 15.480877 -8.204393 -37.573695 -32.410721 8.369530 39.814350 17.129035 3.655313 8.602620 12.266092 11.915689 -25.916850 23.144577 -32.200953 -1.466488 10290 9778 
31.703698 18.565861 -37.699173 -133.888125 -33.616396 11.983412 97.916148 45.034576 -1.966361 0.030509 -5.589350 14.493935 -3.775174 15.705435 -7.892158 -11.006836 10291 9779 
22.395932 5.794811 -42.339321 -82.514864 -17.241917 -6.029543 83.359351 36.575552 -15.782369 -7.844092 14.408140 52.778043 3.937487 -9.243436 0.400953 -38.654726 10292 9780 
-3.024126 -9.817182 -19.629208 -15.727809 5.863358 -12.317717 53.283426 1.369257 -7.748429 -1.753913 25.561102 34.143271 -5.998515 -7.862791 -2.114015 -34.226708 10293 9781 
-21.232690 -18.369493 8.792548 21.943252 19.371633 -8.555829 27.107815 -29.057236 -0.506844 -3.309260 40.847334 11.733784 3.654695 -13.232701 -8.285511 -30.901498 10294 9782 
-44.916130 -21.728969 40.180284 141.154065 15.916221 -37.147618 -28.253392 -65.204461 -1.622077 -14.282028 58.251613 11.608813 22.896050 -22.125664 -22.002422 -32.724285 10295 9783 
-54.979720 -19.197338 47.259764 236.197471 10.811072 -69.418394 -65.970406 -84.702448 8.719520 5.121194 39.804077 -15.668561 22.152183 -12.265876 -30.788501 -17.074037 10296 9784 
-40.876440 -12.884082 26.403988 198.158540 -14.728312 -52.863290 -44.638194 -58.572209 10.717854 17.592688 8.060971 -40.650211 42.248979 -0.913243 -25.944153 -11.112885 10297 9785 
-12.667626 -14.078623 -1.135814 83.684650 -26.607614 -7.039989 -7.794872 -14.360112 12.263329 9.360726 -0.207494 -67.306756 35.276876 9.319413 0.752476 0.541430 10298 9786 
3.546236 -23.461746 -11.759558 -8.426412 -9.979929 25.808610 12.066738 12.206061 24.138400 19.378874 3.942070 -37.105626 -28.303256 5.772885 0.121918 12.054736 10299 9787 
12.247213 -15.826337 12.798690 -28.746931 -36.968214 24.688324 8.605549 23.201706 10.614308 19.895529 25.517860 33.083096 -42.175022 -8.285674 -34.369481 -4.280616 10300 9788 
10.811009 6.230506 22.747137 0.691779 -52.147225 10.637048 -19.011298 20.041044 -11.394043 4.945496 59.566908 70.749760 -34.629055 -26.087305 -38.810376 -24.341384 10301 9789 
9.882411 15.457692 -0.166576 -31.122624 5.013185 17.268439 -31.888414 15.555887 -9.703597 -2.445878 31.677409 107.916006 -69.925189 -31.549483 -12.032473 -13.936795 10302 9790 
13.307759 11.416406 -31.786228 -101.804309 56.922215 39.147107 -8.479752 21.276802 13.596851 1.946507 -48.445396 -11.586200 -47.198685 8.249553 49.793967 33.643404 10303 9791 
13.690436 19.322793 -44.459362 -78.205530 19.521995 24.831038 17.603171 27.695460 24.273828 -9.431272 -99.601679 -174.223026 51.668186 40.564244 108.340950 58.408768 10304 9792 
16.908698 20.116020 -30.219144 -62.217045 -21.278635 3.250753 49.997192 23.442160 13.712115 -34.941358 -119.279201 -230.723176 128.931836 49.565607 127.601964 65.132213 10305 9793 
21.797239 14.488153 -27.634997 -111.421348 -27.594293 27.659095 80.196918 22.509233 -12.761685 -47.999439 -56.214357 -189.295104 137.201924 32.646781 84.008778 52.413103 10306 9794 
22.748805 32.193068 -9.142078 -93.575077 -71.193725 21.249316 77.421400 20.298290 -34.360554 -36.638799 60.251646 -53.859964 61.453331 -13.041470 10.618567 5.577242 10307 9795 
28.242997 40.135893 -8.215639 -65.698411 -65.089129 -11.226069 63.336899 18.513458 -20.297730 -6.187174 57.709624 41.182389 -51.371973 -18.814618 4.505861 -6.726380 10308 9796 
19.180168 9.175014 -27.175916 -39.146802 -14.913152 -15.905661 64.787115 3.999234 7.105453 10.804579 -9.808811 50.368898 -117.937275 12.948684 28.128074 18.390398 10309 9797 
-5.395409 -22.174005 -3.371073 0.585592 -12.983211 -12.184374 85.206803 -29.684324 7.382460 -11.645360 -39.847562 1.047385 -54.261407 44.767088 26.458896 26.098499 10310 9798 
-8.189751 -14.275239 22.792441 30.520563 -41.310910 -32.711966 86.984131 -43.809268 9.195941 -20.756943 -65.271506 -68.904616 33.916637 54.127463 39.411215 18.281808 10311 9799 
-0.865530 15.019105 46.824083 56.944484 -52.151643 -62.032288 33.820087 -37.558299 30.999846 14.147580 -43.320390 -103.163004 27.850083 27.334417 33.433274 12.718194 10312 9800 
6.425651 21.277004 44.005308 38.589124 -50.800209 -42.399072 2.625676 -19.723481 17.847578 30.235503 31.356266 -67.270023 18.484351 8.530899 -30.323003 -8.861571 10313 9801 
4.132754 5.526286 5.625684 15.171316 7.044720 -2.702474 -24.569704 -10.228582 -14.382843 17.871722 83.547186 78.919854 5.479709 -21.529367 -98.879903 -51.026358 10314 9802 
-10.312873 -3.531779 -9.150185 32.745277 86.808498 7.896294 -88.617083 -15.838149 -31.783805 1.139832 94.019123 232.332062 -24.904060 -57.630903 -136.611685 -76.560563 10315 9803 
-8.648888 -24.521484 -19.499994 -43.683547 125.871803 33.110491 -67.486333 4.857952 -10.036279 26.431465 75.411079 190.861416 -53.151409 -55.428514 -122.331477 -51.756281 10316 9804 
3.759355 -31.639432 -36.294704 -135.763981 115.945851 64.354603 -20.686853 40.325161 6.258168 43.780959 40.342349 104.111828 -52.566638 -39.893051 -77.395575 -24.638040 10317 9805 
2.454584 -13.634970 -9.647623 -26.852475 49.444450 43.214166 -83.617722 38.639589 -5.289679 11.849511 11.434938 49.183572 -6.262841 -17.193634 -34.204504 -9.517364 10318 9806 
-25.159192 -17.776090 47.849000 178.622327 -1.251038 -8.699901 -166.872691 -6.712415 -6.566313 -3.340199 27.006275 41.330663 -10.335535 -29.998565 -17.767738 -0.328588 10319 9807 
-38.971623 -13.565004 57.337576 224.389958 -30.417690 -24.017484 -151.327071 -23.428662 -2.639146 -3.814753 33.563156 59.830486 -38.357690 -38.051629 -20.859839 10.329415 10320 9808 
-15.390362 9.052010 21.763457 106.735307 -41.104058 4.345878 -103.724872 18.322640 11.304073 7.237190 3.836836 14.877072 -38.864100 -22.857871 -4.888856 29.355656 10321 9809 
-1.241502 10.941076 12.587889 37.394144 -43.340605 19.300161 -73.191837 37.550675 25.869016 19.312940 -5.291795 -35.355448 -46.317287 -20.415011 25.335438 36.862147 10322 9810 
5.704137 -0.775866 -5.817941 -47.787838 -8.506709 37.546621 -21.273267 40.910863 21.442133 -6.109797 -15.299020 -113.221417 -16.054027 19.546835 62.578232 47.117061 10323 9811 
8.302395 0.170218 -33.146605 -64.703992 -0.579110 32.238303 15.365502 42.353288 5.604997 -22.205980 -42.499424 -138.284529 20.032877 51.388073 85.344298 40.619688 10324 9812 
-8.505833 -20.157703 -14.216403 -13.822682 -9.704347 14.234047 40.805776 11.367143 8.426934 0.020215 -73.280261 -97.310939 19.947491 47.289737 78.105626 16.801198 10325 9813 
-11.332907 -40.090718 -8.674365 -48.112455 38.496301 17.076042 65.006782 -12.368681 5.620339 1.598999 -104.699529 -35.712466 33.279361 49.862008 53.768914 -3.717627 10326 9814 
-3.679310 -17.588648 -13.441571 -63.382845 64.663167 0.696773 54.659710 -21.927276 0.907163 3.155387 -110.770065 -0.548390 39.940091 52.262462 26.163487 -11.110135 10327 9815 
-11.742795 -11.374854 -9.076247 -28.834203 65.094009 -6.025923 34.844907 -32.884894 -5.628888 2.461974 -64.716522 21.565271 34.920902 33.583532 -3.085892 -19.100377 10328 9816 
3.038321 -0.940344 -10.146550 -70.912899 33.932340 1.886395 55.450581 -12.307843 -25.498540 -20.116667 -11.384992 73.812073 46.279566 2.805458 -40.636634 -25.260264 10329 9817 
17.318405 20.472267 6.129042 -109.155616 10.890186 -13.299369 75.929748 -8.284664 -23.101687 -22.201821 70.505743 75.864418 45.842481 -35.626384 -87.764412 -23.518338 10330 9818 
0.532338 20.292751 13.830937 -11.427227 -9.289973 -38.873245 61.557872 -36.623452 -13.997163 -16.352681 129.899341 37.764709 28.145773 -45.877271 -96.098088 -23.484621 10331 9819 
-10.478453 18.008603 25.624240 84.490486 -43.263784 -52.851832 20.149472 -41.678732 -17.428298 -3.941416 85.795199 71.582958 -12.658517 -34.611587 -65.599240 -23.139099 10332 9820 
-23.471119 4.424788 46.310456 160.715923 -36.155768 -69.529608 -25.067102 -57.227570 -11.665735 12.899748 50.825733 67.035391 -37.653487 -28.689987 -39.219236 -13.532428 10333 9821 
-25.342411 -11.968715 32.696755 148.326112 -9.158569 -57.357228 -17.128561 -60.067383 -3.347035 -21.427186 28.263751 -70.229709 17.196526 22.925800 11.562401 15.055452 10334 9822 
-9.020931 -13.670621 -23.416292 80.280520 1.385429 -27.402128 20.475589 -28.631567 -0.385479 -33.026548 21.825592 -135.754572 48.738479 25.003132 51.833652 21.765744 10335 9823 
8.090713 -1.233218 -58.683339 24.488104 -0.670527 -14.586476 42.100748 0.493995 -2.544524 -14.593742 17.450908 -101.181035 2.129223 -21.715356 91.281144 29.173383 10336 9824 
6.614465 10.547563 -29.618944 1.835754 4.041871 -16.045167 22.871731 -0.247273 -19.727687 -22.236667 -19.667622 18.918306 -49.898011 -39.927733 106.905723 25.633690 10337 9825 
2.271311 7.943046 -7.292302 -28.990702 29.990993 -12.822550 15.583035 -6.682832 -24.583188 -14.688808 -38.798977 76.431812 -47.671836 -33.997045 90.478777 -7.170735 10338 9826 
5.340189 5.541282 26.722910 -55.047532 38.844110 -14.560986 2.007332 -8.847306 -16.401345 -13.242435 -78.398417 31.204412 -11.759317 9.326927 94.342710 -15.072534 10339 9827 
-3.035999 1.995946 77.330600 -15.960456 33.919238 -18.626587 -57.430553 -18.192190 -0.075659 -4.750229 -95.821952 13.050241 13.232585 30.795972 46.180315 -2.611273 10340 9828 
13.023915 -7.081210 18.731216 -125.906770 54.407456 54.666200 -41.227954 33.387147 16.507332 11.123027 -51.275439 -7.174338 13.313506 17.136605 -14.185608 14.554914 10341 9829 
41.012561 6.150138 -56.702166 -238.937252 27.593933 111.330396 11.395283 98.157108 21.038971 18.092332 -3.647359 -15.943821 -16.030410 -1.052447 -23.118618 20.661351 10342 9830 
33.284928 17.369536 -67.720365 -160.416062 -17.723785 90.490237 13.574843 91.140668 17.018353 16.944009 10.444312 -46.132743 -40.649146 -0.319681 13.288920 29.405976 10343 9831 
-6.591709 -0.101836 -43.926343 24.031356 -39.067115 44.896885 -6.150410 26.909174 1.370216 3.385082 -51.372552 -54.686134 -29.271519 24.987411 61.705236 43.882260 10344 9832 
-27.491909 -8.613299 10.109040 99.886967 -41.291974 -5.750581 0.960644 -27.808888 -4.349292 -0.067757 -111.553327 -82.125577 12.802553 58.163403 72.528744 54.601253 10345 9833 
-8.202032 -0.686451 8.930820 4.060394 -6.594414 -14.744020 37.953217 -20.717514 0.368321 4.116487 -51.392426 -74.504566 4.499264 40.878366 33.413335 42.621218 10346 9834 
7.439282 6.742849 19.878778 -22.719319 -19.752263 -26.651516 45.202935 -10.140747 -8.847421 -1.846098 68.075711 -13.301212 -16.051761 -7.236772 -17.692979 -3.099469 10347 9835 
-5.829251 -4.325046 44.622368 27.427210 -48.576021 -34.442486 44.004716 -22.881490 -18.231488 -8.900285 101.693187 -17.254335 31.955820 -16.870191 -40.793120 -31.599589 10348 9836 
-21.149992 -25.154742 15.578761 55.384280 -32.905623 -20.941390 52.774961 -23.586255 -4.147763 -1.876767 26.037633 3.704439 67.087664 -18.016557 -46.502821 -26.285829 10349 9837 
-10.353539 -22.854205 -11.067615 14.150599 -18.009401 -4.567831 57.168098 -4.466107 -4.777325 2.507070 -2.954059 112.838348 26.604049 -49.088392 -45.103370 -40.026321 10350 9838 
5.760364 -1.532815 -23.944531 -53.275112 -16.998525 18.335702 49.091693 22.563224 -8.778176 5.325021 16.419511 157.350312 -14.449013 -59.835326 -35.564551 -60.467778 10351 9839 
6.707648 15.050430 -21.150013 -13.009708 1.158448 9.322559 -22.494882 24.415518 16.497877 15.353668 12.620516 27.809278 8.361742 -12.691024 -31.172430 -36.779627 10352 9840 
-0.111304 18.227178 8.357158 70.693265 17.064023 -12.983171 -117.883680 16.636533 34.093291 24.658845 -0.553626 -41.988011 34.623054 21.939374 -56.536460 -16.236468 10353 9841 
-2.640134 23.907948 32.125027 51.791233 3.966595 -1.055671 -129.574639 21.479642 46.419256 48.028405 -34.899096 -36.626982 28.835880 29.336746 -77.217914 -3.876296 10354 9842 
12.611981 29.360324 34.888808 -5.771920 5.723819 22.560096 -127.420812 28.047703 42.673813 58.742105 12.941011 -16.272727 -1.466207 9.718892 -97.592046 -8.744841 10355 9843 
35.015220 21.623744 -3.603488 4.839367 -3.358404 36.639457 -138.636594 47.480699 16.059223 39.675897 79.985049 65.770973 -31.136781 -20.847686 -111.577136 -37.929538 10356 9844 
31.171487 4.707650 -32.801886 47.450435 -4.080766 40.811224 -122.919782 35.661639 3.511803 17.014700 47.128227 75.367106 -25.122826 -13.149200 -79.051057 -25.698754 10357 9845 
5.833935 -10.326844 2.327008 126.210509 -5.757787 1.920305 -105.307715 -14.899411 5.949009 4.406317 10.909654 31.171703 -9.065606 -0.284564 -43.857625 0.771113 10358 9846 
7.376404 -8.959806 -4.447856 58.953149 -2.225216 -12.547961 -15.433866 -22.714848 6.492868 14.030225 4.715745 -2.007806 -13.003025 -3.807265 -17.190935 10.770193 10359 9847 
8.069444 -9.730977 3.267609 -40.983065 22.846097 -11.534541 50.253238 -22.187804 1.593996 13.911495 -7.165963 -3.890869 -29.898742 -1.272219 15.482417 11.239886 10360 9848 
-12.263718 -11.070352 64.061177 16.171860 1.447631 -46.982574 35.930638 -47.294662 -1.494805 -16.225210 -27.071986 -8.150291 -21.301278 17.886861 49.189735 7.166973 10361 9849 
-3.900226 0.786741 37.360949 -21.691235 -6.758202 -31.378279 48.372997 -22.792747 10.317168 -18.448548 -22.681211 -40.739720 -24.756312 19.354405 64.779412 12.174805 10362 9850 
9.794732 6.002341 -28.851311 -64.679128 -14.837543 0.612707 70.232978 21.725224 15.478130 10.399698 20.524241 -36.130557 -43.066717 -3.625040 32.239839 4.180406 10363 9851 
12.129893 4.276485 -41.105737 -61.805767 -40.477663 4.009486 90.739448 32.233856 6.150948 21.900532 68.493093 -4.311189 -43.367794 -18.419098 -18.904367 -11.542125 10364 9852 
21.815254 14.990329 -45.395000 -85.148538 -60.527967 5.287414 109.539155 39.439351 9.926174 23.073370 64.564271 -34.779609 -21.869598 1.116864 -34.726515 -7.304956 10365 9853 
31.957611 28.889280 -34.503376 -112.987993 -60.783430 7.532956 93.986445 45.908506 4.858616 -4.019344 19.518584 -77.055235 55.233380 35.119231 -32.666720 -0.988511 10366 9854 
11.229750 16.805852 2.792698 -41.737603 -38.548438 -4.822329 27.985260 26.294811 5.449479 -7.363726 -10.763223 -7.274071 47.085389 18.787197 -48.908136 2.987090 10367 9855 
-24.347761 -5.660826 10.360575 98.924435 -33.736113 -27.196510 -7.189800 -11.153999 5.011472 5.888460 -39.380664 17.848747 41.914297 -0.500326 -38.936956 8.154970 10368 9856 
-37.363274 -2.880200 4.190013 158.609113 -23.890636 -37.373847 -21.729872 -39.561297 -28.453951 -26.439725 -43.742074 -30.636759 145.149490 -5.004546 7.770047 -18.642483 10369 9857 
-41.534828 5.228045 5.676117 192.556808 -4.605916 -42.735862 -58.854785 -55.729579 -44.477018 -35.029293 -6.857051 7.644386 109.701653 -37.512891 44.430919 -37.900706 10370 9858 
-32.681177 -7.100086 -10.808378 104.339384 44.188697 -13.917586 -40.389222 -43.631632 -39.433835 -29.616156 28.157961 110.809999 -47.733030 -69.529987 68.263196 -20.918148 10371 9859 
-27.004437 -29.506656 -9.410615 -19.252129 86.916021 14.250543 16.264996 -32.257724 -36.641486 -58.338564 60.701804 159.673500 -145.141086 -64.010356 88.600099 -4.843910 10372 9860 
-17.526997 -39.536020 6.895995 -66.692187 96.651037 7.967839 52.503299 -40.262966 -28.234516 -71.422144 34.656491 117.374195 -120.179195 -26.347922 89.228286 4.924806 10373 9861 
3.270921 -28.617842 8.483798 -73.623789 68.248373 -3.926149 56.631067 -30.466380 -2.745964 -18.064730 -44.002436 -4.800880 -39.144906 10.588223 81.380301 16.790393 10374 9862 
4.383091 -14.896172 20.401597 -46.568146 23.705439 -18.308423 54.507543 -23.224929 16.216746 7.187653 -67.633669 -115.054280 21.420009 38.662495 72.616993 26.584052 10375 9863 
-4.170534 -8.186530 9.264230 -57.104528 24.101900 -13.782883 63.624312 -13.745967 -7.482840 -10.635123 -50.118369 -91.744820 68.127674 46.588931 32.375629 12.888917 10376 9864 
-4.740453 -0.078745 -6.930548 -43.939410 10.804519 -2.362150 48.425198 -1.178411 -52.651604 -15.891226 -51.616567 -42.052557 99.286685 49.890554 12.937775 0.096941 10377 9865 
5.040574 17.102960 0.013276 -36.466209 -1.523905 8.407861 -1.150496 8.575939 -64.208598 -27.471579 -62.248530 -15.722316 92.049351 54.517639 16.924233 6.159801 10378 9866 
2.709155 12.790870 -16.176105 -54.433912 19.990972 45.950101 -31.035786 20.204705 -27.169518 -28.411296 -37.715124 -11.851302 48.491913 41.496149 -2.300797 17.459976 10379 9867 
-6.513121 -12.286276 -36.169440 -42.819718 19.577625 66.192675 -7.973273 19.991528 11.960455 -22.603131 23.893155 -62.492715 -9.284075 19.052005 6.909435 32.564872 10380 9868 
4.428605 -17.782899 -28.099851 -56.703410 10.857028 45.950618 17.532486 23.817423 35.083439 -2.629366 75.605661 -73.745968 -99.958867 0.742059 21.125377 43.777665 10381 9869 
28.164883 -0.413636 -16.535358 -151.657009 33.651452 38.636639 25.844015 42.309013 23.205700 7.090254 65.768394 16.891703 -128.586819 -15.325711 -1.670269 32.626747 10382 9870 
29.401571 10.968617 12.923263 -148.007231 22.957539 11.416102 18.616615 41.723524 2.778295 14.063601 45.825266 78.758927 -89.969406 -37.259397 -26.863121 12.665835 10383 9871 
1.014447 -5.969256 16.560826 1.833037 1.740425 -14.033081 -11.026299 9.879901 12.614053 28.403741 15.648611 43.530303 -71.706991 -25.483613 -26.134514 23.128410 10384 9872 
-27.472436 -14.192397 -12.229097 161.311726 -9.040120 -10.984635 -72.906100 -14.486941 17.353518 23.675639 -32.953218 3.538928 -54.380395 4.903780 -0.447939 38.309687 10385 9873 
-37.538967 -1.781196 7.830783 226.082056 -34.487959 -18.587819 -111.083828 -30.433071 13.990458 19.329258 -50.168553 -9.000401 -28.603542 3.267582 25.023455 26.161743 10386 9874 
-19.023076 -12.767260 -5.842945 43.952708 13.432065 31.513453 -40.106001 -11.158944 0.115371 -11.840976 -36.670705 -21.070077 41.851870 -7.944377 39.767442 -4.208548 10387 9875 
7.788648 -15.336125 -23.887557 -77.491420 24.961765 64.909574 2.215461 16.839655 5.672403 -27.609382 5.715039 -43.371544 43.502434 -18.575723 42.800434 -8.133660 10388 9876 
24.844525 12.066515 10.366978 -42.632813 -30.427585 22.026975 -17.675088 21.430493 27.768149 9.915711 9.704294 -74.159955 -17.293871 -9.383200 40.028978 13.419893 10389 9877 
23.357542 17.990111 20.727891 22.257381 -41.712050 -26.228522 -25.861052 9.468699 21.778102 28.070334 -15.177375 -54.762019 -14.263755 12.890533 15.748379 5.715800 10390 9878 
3.109222 -1.610295 31.431005 122.759331 -38.787844 -51.636954 -34.900071 -30.364394 4.836236 18.390908 -26.640213 48.017794 8.536370 5.002415 -31.364760 -26.778750 10391 9879 
-8.516969 -5.479002 41.208765 138.064339 -43.633280 -51.207327 -29.640284 -40.796241 -10.162020 12.871068 -17.153643 127.531772 51.164576 -12.842118 -94.212826 -57.196808 10392 9880 
4.110695 27.019806 28.033439 88.634470 -80.157807 -37.802343 -17.675672 -12.162587 -3.480442 12.097354 -11.343912 128.426246 73.801763 -10.610011 -137.449473 -51.441526 10393 9881 
17.113466 39.758847 8.742002 52.830797 -126.654739 -13.609439 5.425109 16.393957 30.376923 21.913380 9.974605 -25.774368 72.084993 11.734243 -115.558378 -4.751398 10394 9882 
4.320300 9.983379 3.008297 43.241176 -84.448789 -9.307447 26.151892 7.051192 42.524604 37.354870 58.752303 -104.051193 40.100739 16.083432 -105.058500 14.293745 10395 9883 
-8.299341 -2.092091 21.756705 19.268988 -18.683992 -16.296106 21.013321 -16.667484 19.981169 30.810500 55.515122 26.115028 -0.642912 -5.139658 -114.249376 -12.389873 10396 9884 
-4.143114 11.883924 33.396227 34.067852 -36.871370 -17.098709 -5.661798 -15.573011 21.548607 27.469278 54.566749 22.338719 2.841785 -11.500277 -102.496905 -14.767956 10397 9885 
2.657289 18.622661 26.487615 18.375074 -40.738105 -18.193106 -2.201297 -5.010131 19.592125 22.304459 64.504638 -3.815051 18.873848 -11.713795 -102.418731 -7.327494 10398 9886 
16.937205 15.065584 2.096276 -122.060542 29.440407 2.473200 38.211568 17.836302 1.126043 6.800660 8.191274 -11.711468 56.868009 9.839319 -68.081387 -3.032449 10399 9887 
17.113196 -0.805382 -37.527362 -180.000756 94.192786 26.199396 58.499111 22.329012 -9.579313 7.293432 -51.289771 -32.951776 64.726404 25.777490 -3.901265 -0.075199 10400 9888 
-1.592530 -0.359110 -17.422845 -46.989756 59.309467 -9.965001 26.895274 -9.875500 -29.020713 -6.285997 -55.991952 -11.748693 59.013505 8.839161 55.193886 -19.999198 10401 9889 
-15.307399 4.171632 25.591404 71.145533 3.507360 -41.827052 -12.694270 -34.587208 -34.118542 -31.199610 -48.820498 -61.730785 68.584219 13.988193 123.694728 -30.397704 10402 9890 
-17.742157 -18.480669 21.144668 54.944884 19.366862 -16.946617 -18.066215 -24.220755 -26.029257 -23.140302 -21.125923 -24.163777 -20.489906 6.224066 147.754275 -39.029177 10403 9891 
3.743629 -17.851586 2.540209 -83.627089 52.414188 21.500544 6.346983 14.933122 -4.958945 -2.939903 17.258939 23.352174 -119.177068 -16.362065 131.106208 -28.279339 10404 9892 
19.079741 -3.519949 -24.992079 -166.934079 56.003332 42.477249 34.519189 43.366596 -0.003929 -16.025532 20.609739 14.736307 -79.914110 -28.070121 102.437255 -13.769610 10405 9893 
17.462388 -1.310389 -48.054644 -116.068668 33.319001 35.545420 33.558485 45.548407 -7.286762 -8.682236 2.794138 20.689658 -41.855990 -34.145008 76.165205 -7.679004 10406 9894 
7.846460 -1.757097 -44.251526 -13.660428 12.640521 11.862087 0.075256 27.244728 -4.619606 8.188952 -31.894782 -5.982553 -47.441530 -10.838893 78.847245 13.741168 10407 9895 
-3.811039 10.824637 -17.213851 89.773626 -12.379044 -22.207782 -43.715259 -1.271287 -9.868809 -18.460249 -54.706568 -7.141858 -37.815538 16.688060 81.329303 29.975659 10408 9896 
-7.327214 19.492579 1.271856 153.557729 -44.594721 -38.730202 -71.175089 -12.494938 -4.931967 -20.193931 -47.689396 -6.301244 -51.369141 17.827886 70.562600 42.095192 10409 9897 
-21.549872 -8.831274 -10.066490 162.047865 -13.602349 -17.269141 -69.903237 -20.825502 7.737354 16.851330 -25.123843 -25.063661 -67.845799 1.745478 50.784957 40.914185 10410 9898 
-16.235488 -22.387301 -28.356827 44.100963 57.289555 16.812960 -35.478265 -15.745598 14.754155 21.131002 -23.342541 -51.773744 -53.693940 13.628822 38.528759 40.767486 10411 9899 
9.067100 -13.354836 -33.435987 -110.405137 79.261659 46.086754 5.278796 17.501650 9.192852 -16.915604 -61.788454 -91.020698 12.511555 66.105158 31.592138 50.323052 10412 9900 
22.943473 0.609249 -17.809580 -223.580348 89.531824 63.360035 29.708540 35.236807 1.962486 -16.256985 -47.601450 -43.693649 32.314817 58.854826 -13.993202 28.413157 10413 9901 
18.454694 7.602499 11.467288 -183.735999 68.993297 37.582931 23.443252 16.192039 1.044347 20.548553 0.229990 71.567466 -0.944125 -7.900266 -67.449166 -17.096799 10414 9902 
0.686473 -8.861342 20.429360 -51.129739 7.400928 13.050429 22.329295 -3.905404 -9.716643 20.160218 6.360111 164.276025 -2.850890 -36.873716 -100.030366 -41.324739 10415 9903 
-9.072855 -2.563850 34.340356 38.695301 -35.600138 -16.378951 12.048147 -21.468010 -21.020844 -25.398977 24.406388 201.535742 12.913572 -22.559277 -132.256157 -37.620447 10416 9904 
-15.755520 -1.230686 24.799390 83.721720 -25.472392 -34.737987 2.409647 -33.734173 -5.124096 -49.253987 77.504078 111.639380 34.108387 -3.772612 -150.975435 -14.125715 10417 9905 
-11.353949 -7.038764 -12.612892 28.697706 -5.153785 -9.931823 32.642142 -15.248635 21.990163 -1.859122 130.735194 -4.188059 23.573030 -17.799667 -161.544053 9.092514 10418 9906 
-2.228622 7.964774 -11.115998 0.364171 -24.905633 -1.683126 31.464131 0.140303 15.007591 20.696726 121.821705 -54.080326 35.780831 -25.168083 -121.786742 7.728297 10419 9907 
0.619552 8.315477 -9.714730 40.628890 -55.682609 -8.869168 17.267005 7.435583 -6.640619 18.199477 48.296908 -38.681950 49.055211 -16.785639 -28.228266 -25.215122 10420 9908 
-5.825365 -19.132751 -48.032735 68.159321 -32.493028 -0.291243 30.574958 7.040844 -17.634618 1.734904 -14.896408 -14.100674 56.720016 0.009867 29.454455 -41.287542 10421 9909 
-9.678791 -33.250971 -56.195943 45.192960 9.958112 11.223281 33.518727 -0.767374 -22.824870 -31.868780 -37.357478 -17.980561 78.687162 7.345814 43.697948 -19.699235 10422 9910 
2.010082 2.703136 -2.767990 24.721643 -14.499863 -15.438017 7.282955 -4.011946 -13.408460 -10.867674 -22.302886 -14.648431 34.517787 -16.986566 45.868766 -2.172535 10423 9911 
-0.697298 20.135124 18.259236 54.682956 -30.876649 -35.843392 -16.461295 -9.198683 -22.853782 -24.825724 11.909835 21.928112 -6.206653 -21.942822 41.258014 0.733021 10424 9912 
-5.529414 5.298764 25.167299 52.360044 -24.077214 -34.670323 -13.594744 -4.954412 -42.538655 -51.604728 36.884589 106.890867 -35.457597 -35.988465 31.054955 -9.240967 10425 9913 
-20.901657 -12.851274 39.020177 75.698931 -17.913683 -27.551419 -18.190789 -17.310287 -30.627238 -17.844236 43.017098 72.227194 -67.097126 -46.658362 48.045021 -1.062352 10426 9914 
-38.407211 -22.611561 26.349468 101.284277 5.608626 -7.058056 -35.942810 -29.222734 -11.633842 -16.749406 5.750822 -56.736025 -39.989239 -1.940768 96.135551 25.162907 10427 9915 
-19.449384 -10.015162 25.616050 21.320957 29.085728 8.885891 -50.239826 -5.204253 26.564448 -9.393851 -36.428078 -208.258721 3.117083 43.639368 126.001981 54.757770 10428 9916 
8.774674 5.817249 28.446537 -88.453187 40.840808 34.224589 -54.573720 24.923050 60.080798 24.906234 -69.663732 -282.873530 24.439641 59.478683 108.901658 74.730248 10429 9917 
24.910151 17.471202 16.388963 -132.731893 27.397951 50.395871 -38.166392 34.334147 38.791169 22.814100 -87.256730 -131.234925 25.239744 48.579172 41.945067 41.122403 10430 9918 
29.884356 25.250892 16.151975 -89.885046 1.241508 34.286374 -42.762103 25.832044 15.901486 24.832617 -52.881624 -3.036452 23.699203 22.045534 -29.205988 -1.354775 10431 9919 
32.479536 31.384358 2.707214 -60.085375 -26.180924 30.923179 -39.516305 28.288317 11.925450 29.841508 -19.593752 37.505323 17.330513 3.820803 -69.466043 -11.363804 10432 9920 
28.161475 19.930349 -22.058738 -46.474132 -45.586690 27.857536 5.839349 32.330852 -3.257162 22.772996 30.650006 136.469369 -28.310106 -30.652475 -97.873176 -29.799452 10433 9921 
13.549067 -5.635146 -16.666760 -17.966544 -39.667348 11.763769 33.395118 21.227844 -21.963080 4.580516 68.080503 204.971251 -72.873694 -53.733689 -85.482665 -43.579142 10434 9922 
1.470603 -11.629958 -15.984665 -8.338132 -27.656431 10.729357 48.485625 2.923601 -18.917541 -8.511366 24.320534 121.632331 -54.421833 -22.747765 -21.156818 -20.197542 10435 9923 
-0.106176 14.883312 13.957100 19.378250 -45.234408 -29.009632 55.182337 -29.050784 2.171703 -4.135276 3.853302 -20.064040 -31.162929 7.734053 31.110862 10.492324 10436 9924 
0.599985 22.586515 50.248790 15.999953 -35.963987 -68.896310 66.271236 -50.846181 14.971338 6.138433 13.749357 -67.514856 -35.036916 10.079761 42.643154 14.969729 10437 9925 
-5.073410 7.753600 20.140885 -36.310003 6.484660 -53.957511 105.855938 -44.894160 20.789081 15.544746 -13.525427 -50.552902 -9.024857 8.839549 32.881517 -4.951707 10438 9926 
-32.256991 -18.584463 -18.894589 39.175155 26.410587 -46.170104 105.942422 -55.622017 21.854375 12.497012 -6.482776 -51.119661 23.221903 7.133079 6.674419 -13.778351 10439 9927 
-52.119565 -48.250489 -24.208262 111.556675 61.431635 -47.043993 65.815338 -67.181340 12.595957 10.440191 1.321010 -30.588067 41.248106 12.502001 -41.248986 -6.270210 10440 9928 
-32.328419 -33.082464 7.603006 63.624722 53.100157 -38.416529 22.954041 -43.454513 5.172560 19.244961 1.646536 -9.194044 59.734720 12.601437 -78.075284 -11.130886 10441 9929 
-3.959286 -2.833792 21.987692 29.034350 5.317892 -11.922625 -33.918000 -3.706230 2.300338 21.499476 -11.039463 -18.851506 61.258309 11.602750 -54.472975 -12.296930 10442 9930 
23.061966 21.086546 24.544023 -92.629364 15.295256 36.417553 -68.307260 40.531280 -4.785802 -3.266268 -63.461191 -20.984904 64.836181 26.124888 9.499510 -7.962414 10443 9931 
26.534215 15.350070 27.646947 -143.764489 42.496445 64.784510 -86.503296 53.455598 -14.518800 -23.883868 -63.447683 -6.134889 61.587501 18.280733 44.233411 -16.116405 10444 9932 
5.171655 -2.642517 19.781916 -5.937500 11.846668 40.636885 -101.892225 33.035118 -19.198430 -22.822414 -19.837639 47.286480 5.189840 -7.680503 40.840293 -23.777626 10445 9933 
-2.987377 5.347902 31.753990 122.910539 -40.824160 -2.328010 -136.571106 22.698220 -19.251071 -15.875665 -10.441934 103.408558 -53.192136 -18.766136 29.242769 -15.124384 10446 9934 
6.097386 6.192543 -16.792940 149.807607 -39.841693 -7.226791 -135.680814 37.444703 -12.140707 -2.416643 -0.009318 129.618698 -84.777561 -35.204802 9.661895 -4.731562 10447 9935 
3.704028 -14.335224 -82.414503 82.834352 -12.604792 15.201407 -37.196877 44.811609 -2.973288 19.463898 58.333631 109.206602 -99.408884 -61.304731 -12.503811 -10.813416 10448 9936 
-6.422745 -31.461499 -61.709778 36.411036 5.389761 26.858876 9.312976 21.621373 1.477736 31.692434 108.482415 5.953474 -76.291422 -52.877614 -12.798076 -5.638947 10449 9937 
13.467009 -1.356639 -26.105094 -31.840016 -15.094258 26.882304 12.151788 21.894907 -1.045606 9.693943 92.701431 -38.511580 -41.108513 -19.542520 -13.794290 11.607135 10450 9938 
29.297054 37.154114 -14.546077 -106.510696 -35.449097 34.190520 9.706630 46.157553 -9.855321 -3.109922 33.907823 20.088378 -5.833632 -4.921582 -40.476490 10.200747 10451 9939 
9.862922 34.898508 -2.009763 -83.729224 -36.772936 35.723698 -2.084226 44.111020 6.054013 16.532682 12.546237 -70.326837 43.746382 6.967333 -32.258285 16.738474 10452 9940 
-14.632792 14.649467 8.546484 14.931765 -37.822077 10.387697 -1.875609 5.815064 27.871332 19.460842 -15.760305 -212.760945 73.196974 43.226479 18.925772 45.839852 10453 9941 
-15.744652 4.970520 7.585477 93.360531 -2.192113 -5.740395 -57.175259 -25.064107 16.364603 2.039216 -28.643509 -158.995219 33.243013 55.897353 32.332072 47.762473 10454 9942 
5.876546 0.419425 -22.159354 61.959950 20.341095 9.473937 -64.794588 -11.117012 12.568444 -7.924480 -45.866827 -81.794745 -15.307895 52.142560 41.468082 44.714861 10455 9943 
20.188895 -15.961234 -70.222769 -42.516422 44.074332 40.054432 6.464913 17.917853 29.401868 2.467804 -87.802884 -114.072910 -3.790711 63.111818 57.424657 53.260359 10456 9944 
17.334508 -26.229392 -72.213133 -135.740223 77.860903 52.903666 57.490977 28.592693 26.684449 -0.304530 -72.570022 -71.419954 14.632778 38.794283 35.009774 29.173221 10457 9945 
4.505861 -39.345212 -42.042983 -86.629908 73.068999 23.327295 71.458858 -4.342910 6.617122 -18.899353 -30.588496 48.578690 -10.077195 -4.784939 14.610617 -5.456446 10458 9946 
1.342660 -24.904944 12.541652 10.112960 22.083486 -28.151112 42.280395 -35.305097 -20.671475 -24.434619 -1.664666 120.958651 -11.589205 -25.909637 -2.902871 -33.786178 10459 9947 
13.882443 13.346656 70.320521 -11.196941 -10.891921 -57.614075 17.774974 -35.621657 -37.706348 -24.219631 7.333855 133.880841 26.392124 -30.816713 -29.483511 -45.380616 10460 9948 
14.814548 19.044737 51.066485 -75.389699 30.875517 -43.508936 33.708845 -30.611497 -28.578547 -6.629853 38.765264 121.018118 15.135469 -45.088167 -50.036760 -44.585524 10461 9949 
-13.897730 5.711489 37.509967 33.856490 19.692175 -60.169652 26.600710 -49.303450 -16.494697 5.529399 64.717323 109.548514 -11.223460 -51.483634 -52.293390 -48.300055 10462 9950 
-41.963602 -18.261278 42.318249 130.645931 16.593992 -72.115282 16.112879 -73.330888 -12.789195 -3.902315 55.102949 77.811539 3.301135 -30.170405 -45.519928 -43.833781 10463 9951 
-57.906713 -35.186850 22.481482 88.082182 61.259807 -37.514118 31.684253 -72.900043 -11.468051 -7.580092 33.178185 21.579136 61.480707 -7.875882 -42.625813 -46.688190 10464 9952 
-52.022847 -30.607396 28.354273 63.690336 35.553206 -31.138355 44.464278 -58.293496 1.362017 7.917154 25.634679 -28.368819 77.509675 -1.721060 -32.361123 -49.972523 10465 9953 
-10.772262 -12.881501 12.975466 -14.539870 -1.441120 -27.374730 73.391384 -19.357368 14.819931 8.882050 3.344598 -10.309900 33.769799 1.547911 -28.230727 -23.823663 10466 9954 
10.877728 4.562224 -5.391229 -41.530637 -30.767581 -16.515612 78.346148 0.418959 22.791600 10.679106 -28.091385 20.871594 3.228151 3.175187 -49.030070 16.375815 10467 9955 
30.366944 33.071373 21.981941 -49.217278 -118.507867 -12.061393 67.337165 27.029114 10.084771 27.262472 -23.920569 50.947711 -11.025847 -0.801320 -71.002396 18.455179 10468 9956 
46.683530 51.692418 22.822285 -62.610364 -175.983336 -3.046537 66.925030 53.516974 -13.770157 9.405049 -17.862507 83.779725 -19.636431 3.281760 -47.879051 2.681613 10469 9957 
20.938277 32.104143 8.418318 27.323340 -143.115628 -3.387885 30.530871 27.188564 -2.182414 -8.783474 -20.564571 17.925312 -61.718651 17.487654 30.803058 27.033085 10470 9958 
0.590583 15.059962 1.904264 98.044609 -104.587059 -12.762999 -0.556199 2.306839 0.349633 -23.335212 -17.382175 -72.692050 -51.285991 24.956600 95.492961 43.896234 10471 9959 
-2.113787 9.528266 -26.098970 61.771484 -29.938335 -7.285938 -1.397090 -4.465630 -5.545451 -21.360619 -12.329478 -83.062088 -26.813163 7.671514 103.411684 38.027602 10472 9960 
-10.257806 -6.478049 -34.839751 6.499657 43.429118 10.065349 -4.500984 -3.917535 1.615458 -6.607394 -21.253408 -88.582622 -40.115906 5.111231 108.223412 41.609229 10473 9961 
-8.196224 -13.380459 -31.012609 -48.854082 74.395502 18.248475 5.077655 3.721742 2.326684 -7.624043 -25.447491 -59.902012 -40.316801 7.581166 86.093648 37.288849 10474 9962 
7.303894 9.922916 -20.756906 -88.686532 50.492618 18.453999 9.540947 13.729064 6.191165 -4.018690 -26.329687 -19.585597 -41.557069 7.836503 47.785481 29.677895 10475 9963 
13.532995 18.063017 1.896111 -106.964714 18.852533 33.361339 0.944924 20.313794 7.228616 -1.966669 -22.058447 -46.612442 3.996027 15.471409 28.733210 15.208295 10476 9964 
18.753594 10.561153 -20.404315 -97.911077 19.518407 47.344761 -5.020552 27.158030 4.080493 6.059845 0.850538 -26.912078 29.122485 -1.377201 -3.793995 -8.030087 10477 9965 
13.221090 9.060040 -33.518692 -15.895262 -6.435796 35.116308 -24.846295 23.298606 0.568297 7.140773 6.609664 33.393467 -13.076896 -15.463417 -4.697808 -14.474080 10478 9966 
-11.609318 8.132383 24.650267 107.131474 -39.828631 -5.839660 -74.550010 -8.086506 -1.179161 10.715905 19.136174 80.382324 -59.091389 -19.778087 -13.189054 -16.996713 10479 9967 
-16.297483 10.738512 26.426346 97.972951 -28.303935 -2.603616 -82.028815 -5.903960 -7.007427 2.306777 51.921182 68.028400 -49.239060 -4.131170 -43.170660 -18.708041 10480 9968 
-6.108543 1.610368 -5.656513 -35.144893 37.357491 31.001177 -42.809626 19.750538 -12.256677 -13.821669 65.141119 23.061477 -1.788371 11.373272 -46.236154 -25.472997 10481 9969 
-17.973969 -20.130647 22.931256 14.390313 43.354240 0.923299 -43.214345 -0.280147 -1.299282 -7.335642 35.115010 -22.878637 39.132869 15.622107 -32.501055 -25.855370 10482 9970 
-29.492879 -26.880913 28.990490 117.447802 10.769212 -25.288626 -51.291979 -24.253107 9.362424 -15.295249 -29.688105 -89.883208 96.860909 38.183472 -20.713438 11.173195 10483 9971 
-16.806181 -19.716307 4.608981 84.394421 4.050992 -12.372445 -31.757574 -12.401888 8.119705 -13.056492 -37.712132 -60.699261 100.946642 25.048452 -49.680555 27.033640 10484 9972 
8.199664 -12.665929 -23.267120 -40.645625 19.903123 18.637347 7.290748 22.547792 3.289175 14.274097 14.715186 13.650839 32.686073 -12.100575 -82.792224 16.277429 10485 9973 
24.133955 0.463125 -20.046723 -142.050570 39.306769 32.535576 33.634371 32.023496 -4.621853 22.507937 29.112120 25.247848 -1.292212 -26.470432 -63.532565 19.049158 10486 9974 
21.141378 6.210162 0.789498 -152.891487 47.089112 26.783060 32.747070 18.131206 4.162917 11.560806 -45.354458 -74.062433 13.392282 3.205896 44.017537 43.077453 10487 9975 
7.596116 6.377091 6.616655 -99.793020 60.620925 13.723445 4.857753 0.001035 9.633657 -4.124274 -124.508742 -163.052992 27.820159 49.106258 145.858777 59.267157 10488 9976 
-11.044308 -5.658591 24.674165 -25.073271 64.215458 -6.089753 -16.782152 -24.241548 -2.239287 -8.924863 -101.131780 -129.589115 28.233819 39.856795 144.813849 28.980581 10489 9977 
-8.907793 -9.290290 39.572044 -18.652041 42.004032 -13.078002 -13.760154 -17.887796 -13.517881 -21.247604 -34.071250 -47.398896 26.425647 5.901370 95.613200 -11.704587 10490 9978 
1.370438 -9.998850 13.272204 -14.508175 20.581987 -4.929004 -0.789671 -4.998929 -32.521625 -46.506318 21.921859 95.276371 19.726398 -26.470067 26.186366 -57.612984 10491 9979 
4.300728 -19.803169 -17.200082 29.508194 -3.982309 3.045683 9.061871 -4.930914 -38.635701 -31.469831 91.069211 234.549840 -34.764046 -74.102683 -52.245372 -94.401418 10492 9980 
9.826868 -11.820610 -16.264632 58.603551 -48.446605 2.268520 2.724893 3.108014 -22.266768 -8.069216 128.083301 180.520754 -66.963151 -73.000885 -74.275520 -64.028515 10493 9981 
6.210062 -5.874526 -21.911590 42.521487 -33.929870 1.969486 6.822476 4.192475 -3.740335 -6.082040 100.328193 20.716303 -34.889149 -28.300334 -34.800497 -13.232142 10494 9982 
-1.014079 -0.303641 -5.920933 20.019630 6.404478 -10.062011 -1.723870 -7.399575 3.241817 1.560299 71.537774 -26.418949 -19.209963 -14.843597 -14.396042 -1.471340 10495 9983 
-6.254424 -2.998399 -2.053651 10.849320 21.822950 -1.258174 -10.901414 -9.206208 11.779021 -1.998090 -12.419882 -45.681223 -1.957863 16.696703 10.618141 22.963194 10496 9984 
-7.113509 -5.415979 -19.750385 28.136815 18.370183 6.568461 -13.878037 -6.917550 23.917180 -1.581185 -101.747823 -63.945278 16.376941 44.943688 32.516621 49.519856 10497 9985 
-12.356136 -0.859877 -5.679034 60.598917 10.995686 -6.212932 -30.008200 -16.478423 20.010492 14.058814 -73.707292 -58.536680 16.671444 32.360718 10.265936 38.876570 10498 9986 
-8.260320 -0.036870 -3.518078 7.019838 28.373896 7.211513 -25.264908 -5.525070 16.431244 29.197020 -2.077980 -26.848586 -16.714322 4.982396 -19.276471 14.306699 10499 9987 
5.167669 14.367082 -0.030840 -18.472873 1.803575 6.269586 -20.520158 11.415960 15.244222 37.823790 70.886486 19.355606 -51.319605 -36.893053 -42.354576 -12.742869 10500 9988 
9.914015 29.013463 21.861424 23.805081 -61.633294 -17.710380 -23.471104 18.220795 -5.798742 1.309893 34.051186 79.474957 -21.127122 -32.719387 -33.633307 -21.557478 10501 9989 
11.894789 26.914875 20.846041 17.529138 -73.382814 -18.319093 -11.910770 26.427835 -16.954717 -25.685317 -60.058345 116.876129 8.074509 -0.262346 -10.228902 -11.761010 10502 9990 
14.593301 17.792418 1.022818 27.980982 -71.133018 -17.489235 3.666500 23.566234 1.849246 16.350177 -57.672664 92.298139 -14.472064 -4.222208 -22.752409 -11.378217 10503 9991 
26.320120 20.129376 -17.703718 13.359312 -81.603767 -21.342428 24.005070 36.836036 27.572468 53.368137 -47.643576 35.744670 -37.701130 2.081715 -28.225807 -5.196477 10504 9992 
25.761230 13.080522 -46.846927 -47.762067 -47.267480 2.774195 48.165579 52.094949 33.957086 36.637513 -31.774432 -55.784173 -7.215003 32.628851 -16.169363 7.719520 10505 9993 
8.739001 -16.666822 -65.234903 -60.814060 5.319866 35.001518 58.333470 35.321931 31.701596 27.438485 48.045903 -140.533101 20.594261 31.511780 -21.599361 2.840437 10506 9994 
2.418562 -15.439430 -23.076501 -48.506555 20.382429 30.479843 24.403633 9.338019 24.537945 63.134592 107.752838 -127.675717 4.186222 -5.878506 -47.885176 -18.172197 10507 9995 
6.338755 3.514913 7.621704 -66.187522 25.021592 24.327023 -4.394006 3.757541 -8.305162 45.429504 84.710335 35.096619 -5.376395 -29.527708 -80.668030 -41.359164 10508 9996 
-7.353020 -7.580672 10.714289 -33.080771 24.923700 16.668777 9.668342 -13.960645 -33.825909 -43.293156 39.279661 101.084180 28.124283 4.286984 -62.920982 -32.735060 10509 9997 
-30.699735 -24.053688 29.546313 37.338881 33.246441 -7.605660 11.785289 -49.557842 -18.609795 -75.686055 -30.138012 -5.338000 73.636238 56.572109 -6.887159 6.450674 10510 9998 
-39.785918 -42.499437 -6.710610 47.598486 85.852149 -7.516820 23.997209 -60.935059 6.173138 -32.851748 -67.401425 -75.720683 67.392600 54.063257 24.346336 23.998525 10511 9999 
-42.280322 -47.492444 -14.200399 91.698307 101.614207 -37.086317 27.022198 -79.275229 -7.909502 -15.263160 -41.874037 -6.657271 40.872235 17.505239 13.229742 0.096755 10512 10000 
-35.428760 -19.471895 34.198908 139.639435 45.371114 -75.188619 -1.391474 -87.728708 -22.338308 -20.940619 -14.105281 30.844059 35.819267 -3.756160 7.773509 -13.296466 10513 10001 
-18.699855 6.822420 28.885756 99.899752 0.893346 -64.870414 4.827664 -57.758669 -26.726685 -22.309090 -14.204673 46.290694 32.391173 -13.707440 15.526844 -17.260822 10514 10002 
-6.418379 17.266639 22.104310 62.881508 -14.639423 -48.549740 -1.528966 -31.115947 -25.938568 -20.283885 -42.603385 78.841018 20.387579 -14.891089 22.061717 -17.573388 10515 10003 
-9.015355 9.198136 21.997239 55.741512 -20.665496 -15.830880 -36.922384 -4.502771 -2.605977 11.737961 -25.588599 54.093151 -36.332510 -16.472138 26.397707 -11.229596 10516 10004 
-7.950192 -6.063396 3.789380 6.829511 -0.249105 27.559863 -50.620290 26.704230 15.999474 38.748321 15.226633 38.966074 -109.596358 -12.386358 18.590112 -5.547899 10517 10005 
16.364301 8.684591 -2.243858 -49.244602 7.773082 54.989687 -93.909792 57.586590 15.611145 32.765884 51.275789 -23.865823 -108.274748 -1.965555 19.167999 15.285309 10518 10006 
44.864540 34.968974 -5.057016 -76.915166 -13.800851 67.707076 -139.375637 87.608079 -9.547617 18.282526 95.301148 90.859038 -126.574634 -48.500143 -17.494895 -2.325423 10519 10007 
44.433382 34.730101 -12.951928 -84.175045 -42.498089 66.369877 -99.836940 93.928640 -6.766927 17.089245 100.875794 137.198393 -108.257792 -83.544311 -39.018843 -17.575559 10520 10008 
24.048658 23.194480 -19.777507 -101.628227 -63.198168 76.566488 -18.930502 79.724777 16.245415 4.825128 47.095359 -46.265391 16.582541 -46.308725 7.459000 0.366673 10521 10009 
12.912730 18.702886 -15.477296 -125.109647 -59.570038 70.947803 46.931934 50.661629 13.853778 -31.377033 20.554615 -107.727568 78.395708 -15.553906 38.862483 2.991922 10522 10010 
7.953618 10.848821 -13.274774 -63.454044 -43.146769 32.091894 56.340683 12.640571 8.168231 -45.822236 0.801668 -145.050153 99.217176 19.362854 58.664554 4.657905 10523 10011 
10.571820 3.943899 -7.922877 -2.341806 -29.994598 -4.627555 40.085117 -9.714000 12.507072 -24.798175 -46.329419 -165.527864 84.107278 41.408601 69.154077 29.478429 10524 10012 
19.777752 6.051727 0.071484 -43.461297 -19.075448 -23.759013 65.390682 -4.995888 18.082633 -3.085827 -78.597587 -154.410905 39.739004 45.519517 60.592704 72.160460 10525 10013 
5.891283 -2.433107 -10.593994 -36.601110 2.087729 -30.904467 87.313875 -14.760210 -13.102988 4.320160 -77.733457 -74.872205 5.376982 44.038358 47.931269 64.041881 10526 10014 
-34.143127 -20.436140 16.157141 118.949248 5.168099 -69.404803 54.108279 -70.398695 -46.294076 -3.870837 -31.081201 53.677410 -23.939540 20.923680 13.478697 17.105868 10527 10015 
-42.553952 -26.415462 39.396006 165.231919 19.387703 -74.121383 0.886894 -81.811724 -23.312913 -8.038765 -22.154259 102.462449 -23.873478 8.953413 -26.581876 -7.454571 10528 10016 
