-1.419771 -2.561221 1.576120 2.380317 4.534905 -0.490308 -1.694626 -2.325416 -0.697448 -0.891880 -3.624802 -1.044825 6.297277 3.049035 -0.710603 -2.376752 1804 1696 
-1.983859 -2.510515 1.127916 4.397659 6.259013 -0.334134 -3.253063 -3.703018 0.189092 -1.192214 -6.758715 -6.483669 6.392641 5.633177 0.614369 1.605320 1805 1697 
-2.491141 -3.192249 0.811816 5.013799 6.743678 0.532495 -3.869528 -3.548869 -0.097416 -0.327157 -4.456237 -5.703688 6.163140 3.520739 -1.086460 1.987080 1806 1698 
-1.300393 -1.940354 0.510494 4.201964 4.653151 -1.107607 -2.627541 -2.389712 -0.847010 -0.236903 -1.972461 -3.206841 4.434769 1.549335 -0.110517 0.389628 1807 1699 
0.174387 -0.479981 -0.419402 1.140629 3.030841 -0.877878 -0.843621 -1.724974 -1.032400 -0.042062 -1.294751 -3.597236 3.640493 -0.482994 0.895981 1.912969 1808 1700 
2.054816 2.122714 -1.432766 -2.609971 -0.826003 -1.799277 0.935269 1.555218 -1.599682 -1.537187 1.079347 1.502713 2.778739 -2.273837 0.801582 -0.751675 1809 1701 
4.726804 5.155370 0.213426 -4.647972 -9.843330 -3.302954 2.586419 5.112237 -2.453891 -0.828974 4.433713 5.295690 -0.424450 -4.553834 -1.346875 -0.121379 1810 1702 
5.995769 6.350987 3.677218 -3.687068 -17.410517 -3.884752 2.384990 6.573372 -2.799266 0.524442 5.039812 8.672879 -0.083779 -6.632917 -3.564850 -1.156320 1811 1703 
4.786188 5.490509 3.344195 -2.634354 -15.996651 -3.028836 2.172421 5.866529 -2.915676 -0.117981 3.668135 9.289330 0.301192 -5.087914 -1.645860 -3.491225 1812 1704 
3.802104 4.134467 0.433530 -2.710298 -12.139719 -0.988875 2.664350 4.804442 -1.845571 0.127184 2.562278 3.828967 -1.275694 -3.591706 0.743582 -0.549040 1813 1705 
1.843762 2.561138 -0.584724 -1.552652 -6.708504 1.300807 1.103314 2.036858 -0.124887 0.922677 -0.507714 -1.263744 -0.353473 -0.578791 1.417030 0.488902 1814 1706 
-1.916680 -0.593506 -3.736469 -1.499840 4.555897 1.632629 1.266620 0.291349 0.834429 0.946159 -3.748072 -4.752161 0.172963 2.290704 3.260250 0.995727 1815 1707 
-7.696852 -5.132398 -7.926824 1.761996 18.670806 4.138855 0.185790 -4.001373 0.852265 -0.110980 -4.167065 -4.452683 -1.605234 3.881683 4.189649 1.412366 1816 1708 
-9.706129 -5.452075 -8.126494 6.581248 22.407407 4.071774 -2.931220 -6.844510 1.543478 0.801827 -3.547932 -5.454361 -1.063912 3.955169 1.790837 1.974893 1817 1709 
-5.732581 -2.744543 -1.646812 6.741262 14.260982 -2.882941 -2.917256 -5.078110 1.300202 -0.508034 -3.063191 -3.893358 1.220961 5.046654 0.871976 -0.975210 1818 1710 
-2.108285 -2.764904 1.580309 1.645105 6.581289 -1.424456 -1.028161 -2.480898 0.198731 -0.775246 -1.208362 -1.054552 -0.107656 5.128179 -0.469919 -1.711175 1819 1711 
0.866488 -0.950799 -0.135611 -3.533437 -0.079243 2.540179 0.362468 0.929956 -1.377951 -0.199686 0.904549 2.388829 1.106407 1.956515 -2.242858 -2.535805 1820 1712 
0.439297 -0.402094 2.103496 -1.159627 -1.698977 1.301881 -0.432561 -0.151414 -1.144839 -0.374924 2.250592 3.502678 1.241735 -1.005303 -2.443081 -2.026859 1821 1713 
-1.898214 -0.130271 1.602718 3.705322 -0.145178 1.374041 -2.253475 -2.254944 1.619863 1.360399 2.342444 0.264270 -0.396138 -2.970641 -2.399007 0.178809 1822 1714 
-2.940322 0.516527 -1.069895 7.529118 1.529521 0.917987 -3.564871 -2.918064 2.785768 1.236099 1.338127 -0.755363 2.691375 -2.859482 -2.917059 -1.519464 1823 1715 
-3.241752 -0.595943 -0.967940 7.457588 6.517979 -1.816205 -3.994163 -3.359562 2.209424 0.986003 1.308359 -1.695682 2.377375 -2.716869 -3.125803 0.657192 1824 1716 
-2.797549 -2.511761 -0.450216 3.914283 12.638958 -1.871159 -4.084831 -4.837724 1.650243 1.278369 -0.882530 -2.923711 1.714270 -0.554245 -1.795715 1.513319 1825 1717 
-1.550992 -4.639858 -2.224257 0.132945 13.399452 0.055643 -2.174329 -2.998604 0.694847 0.891921 -2.730906 -4.232411 1.065123 1.065792 1.064904 2.180729 1826 1718 
-0.458214 -3.349680 -2.727858 -1.942134 8.698159 1.290445 -0.608723 -0.901994 0.009688 -0.411714 -3.010979 -3.876477 -0.125310 1.189027 2.990280 3.235486 1827 1719 
-0.395262 -3.055375 -2.543646 -1.158659 6.162968 2.875562 0.238287 -2.123874 -1.121647 -0.975640 -1.646982 -2.004887 1.438439 0.745541 1.703721 1.861454 1828 1720 
1.380423 -2.798210 -3.369702 -4.730196 1.831515 3.328533 3.230512 1.127125 -2.812221 -1.437870 0.815962 1.210401 -0.341239 -0.175272 1.854561 0.885679 1829 1721 
2.892336 -0.106582 -3.618205 -10.119786 -5.213729 3.438125 6.118134 6.609706 -1.031640 0.026624 2.001300 2.138990 -5.816246 -0.131740 0.973951 1.838760 1830 1722 
1.431778 1.638384 -1.991329 -7.858600 -9.075891 2.528424 5.784819 7.542415 1.029899 1.979892 2.945419 2.187247 -10.082846 -0.175521 0.665225 1.450685 1831 1723 
-0.638201 2.636322 1.001464 -1.306420 -8.363898 0.425685 2.333222 3.911825 1.175285 1.503344 3.154698 3.469689 -10.759663 -0.743386 1.551096 0.648937 1832 1724 
-0.290219 3.070445 1.690279 1.217411 -7.247765 -0.611094 0.669468 1.501474 0.549827 1.459542 1.920999 1.449905 -8.485667 -0.907710 1.430504 2.582601 1833 1725 
0.510655 2.202834 2.357081 1.425295 -7.703683 -0.329871 0.990425 0.547263 0.555302 0.451192 0.349615 1.782296 -7.082505 0.497387 2.645477 0.801237 1834 1726 
1.329914 1.462479 2.704035 1.078567 -8.271213 -1.188685 1.647468 1.237436 0.348552 -0.324784 1.401320 3.343782 -8.430383 -0.535005 3.750341 0.446177 1835 1727 
2.290532 1.196259 4.302244 2.461210 -9.153301 -1.974649 1.010914 -0.133209 -0.874635 -1.455651 -0.089342 3.028243 -2.708332 -0.236213 2.664900 -0.328970 1836 1728 
2.454480 1.017514 5.318263 2.642196 -9.371817 -2.848142 1.097806 -0.310300 -2.668846 -4.062601 -2.303645 2.931559 8.973481 0.932648 -0.636489 -3.166107 1837 1729 
2.362309 1.252397 3.456732 0.280046 -7.254564 -3.294114 1.526151 1.671043 -2.721791 -5.077983 -2.386707 2.033890 15.292491 -0.343884 -2.617098 -4.178917 1838 1730 
1.331416 1.491452 2.020406 -1.200367 -4.198370 -0.619675 0.607177 0.567962 -0.456721 -3.003616 -1.965116 -1.038055 15.213144 -0.828921 -4.528338 -3.392378 1839 1731 
1.584146 1.287775 1.548607 -4.138724 -3.558773 0.960910 1.072731 1.243329 0.832489 -0.381239 -0.359510 -3.216376 8.975747 -1.096875 -3.717461 -1.036775 1840 1732 
1.947901 1.129305 2.472321 -3.710008 -3.682860 0.419722 -0.060118 1.483737 2.406155 0.723116 -0.863062 -3.885571 1.324757 1.050749 -0.719761 -0.036383 1841 1733 
1.946260 2.015865 2.926665 -1.748909 -4.377436 -1.026998 -1.721240 1.985793 1.722627 1.821214 -0.510026 -2.909643 -3.029505 2.996396 -1.253875 1.162812 1842 1734 
2.410868 2.622417 2.543439 -1.131427 -4.217637 -1.590637 -1.748763 1.111740 0.812416 2.577900 2.067397 0.600429 -4.994386 2.494614 -3.210942 -0.347428 1843 1735 
1.852810 2.249051 2.235175 -1.200228 -2.633954 -1.704031 -0.977222 0.178399 0.045212 1.749932 1.687244 0.774535 -1.254842 1.204236 -3.109673 -1.096644 1844 1736 
1.504056 0.374615 2.082686 -0.885755 -0.902074 -0.891977 -1.422098 0.140546 -1.217477 -0.173462 0.882597 2.118086 3.387624 -0.123189 -2.490349 -2.383830 1845 1737 
1.579802 -1.236673 1.059924 -0.321825 1.779420 -0.460330 -1.933583 -0.466736 -1.506282 -0.230487 2.760118 5.032822 1.158176 -1.545209 -2.308416 -3.360723 1846 1738 
0.851689 -0.162946 0.230469 0.143541 3.456583 -1.293198 -1.952469 -1.273668 -1.246666 0.618430 0.062690 2.721992 -1.075937 -0.914104 0.191914 -0.358318 1847 1739 
1.405771 1.134834 -0.336759 -0.604213 1.305413 -1.103077 -1.007139 -0.794829 -0.452518 1.204974 -1.829531 -0.849026 -1.478281 -1.012328 2.554229 1.862481 1848 1740 
2.478356 1.409735 -1.851143 -2.352124 -0.891570 -1.108395 0.948884 1.366257 -1.161876 1.861289 1.622845 -0.591643 -3.478721 -3.343888 2.916295 2.175698 1849 1741 
1.141465 1.819492 -1.135570 1.202543 -0.837055 -1.223093 0.274862 -1.242645 -0.686386 2.813243 1.816187 -0.792158 -4.756029 -2.335327 1.797051 2.143420 1850 1742 
0.909265 2.291899 1.302011 3.182708 -3.513892 -2.585665 -0.220778 -1.365548 1.001919 2.532775 -1.846056 -4.253264 -3.031570 -0.040465 3.104450 2.532211 1851 1743 
1.334190 1.926368 0.933141 0.330830 -4.077993 -1.401851 0.098697 0.856618 1.390308 0.989159 -4.062558 -7.464779 -1.303118 1.562233 5.237393 3.651363 1852 1744 
0.848987 0.237921 -1.542974 -1.227898 -1.023876 1.000982 0.455157 1.251700 0.721265 1.422439 -2.503863 -6.300482 -2.775379 1.239487 3.506090 4.690443 1853 1745 
-0.829446 -1.803135 -3.319441 -1.337237 3.999656 1.407247 0.552628 1.329726 -0.050672 -0.350294 -2.418533 -2.423424 -1.808111 2.292656 3.674083 1.084294 1854 1746 
-2.689482 -1.344633 -3.557247 -0.999483 7.533542 1.033746 0.188515 -0.164958 -1.428601 -1.895655 -0.281691 1.153626 0.082033 0.920821 1.834273 -0.384807 1855 1747 
-1.572194 0.672742 -1.151215 0.447511 4.216419 -1.354181 -0.189731 -1.069352 -1.549903 -1.502811 5.724165 6.799739 -2.258628 -2.913692 -2.239321 -2.059549 1856 1748 
-1.059307 0.717633 -0.245939 1.479383 3.073520 -2.839614 -0.089465 -1.036212 -1.941727 -2.132593 8.409962 11.146882 -3.169193 -2.868310 -3.723473 -5.721547 1857 1749 
-1.104099 -0.249963 -0.768596 2.622220 2.276485 -1.876758 -0.087239 -0.812050 -1.799947 -1.609584 6.295879 8.747620 -1.247649 -0.360580 -5.050025 -4.975712 1858 1750 
-1.420344 -2.104810 -0.051322 3.711145 1.908651 0.350466 -0.669327 -1.724458 0.091865 -1.344475 -2.030437 0.701342 4.341625 3.588717 -2.823726 -2.524909 1859 1751 
-2.354502 -4.670727 -0.579917 1.632303 7.475024 1.439105 -0.411738 -2.529548 0.071707 -3.243654 -11.223130 -3.247889 12.710082 5.258152 0.327327 -0.652593 1860 1752 
-2.466587 -5.178823 -3.444316 -1.455635 11.184985 4.104558 0.154949 -2.899132 0.400045 -3.784914 -12.720869 -3.665267 13.355802 4.922963 1.126408 0.365832 1861 1753 
-3.739953 -3.856315 -5.195080 -1.145100 11.483725 5.403231 0.044617 -2.995126 2.476422 0.830220 -5.090672 -0.448658 2.383993 0.697285 -1.665645 0.817057 1862 1754 
-3.500642 -2.022845 -3.116064 -0.383669 8.271607 2.648306 -0.689530 -1.207164 3.744630 2.782407 5.002729 8.953089 -8.985164 -4.295970 -4.358754 -2.842967 1863 1755 
-0.863256 -0.498107 -0.422473 -0.533932 2.010704 1.489667 -1.197180 0.014578 3.834887 3.342157 4.530661 3.892463 -9.150511 -4.087416 -2.250475 -0.111767 1864 1756 
-0.361882 -0.178875 1.101453 1.806604 -2.186035 1.482023 -1.041217 -0.622070 4.629794 0.611091 -3.551787 -11.841987 -0.568820 2.611725 3.104127 5.005858 1865 1757 
-1.399337 0.543132 0.446530 2.162351 -1.463295 1.120413 -0.756283 -0.653513 2.712719 -3.413112 -3.311865 -12.340925 4.315621 4.975748 4.316107 2.745707 1866 1758 
-2.197136 -0.338891 -0.372217 3.315176 2.256813 0.360073 -2.031892 -0.991926 0.284893 0.682223 2.111892 -1.468442 0.627065 -1.337707 -1.170297 0.270372 1867 1759 
-2.218913 -1.197291 0.843135 4.965016 2.152118 -0.442777 -2.594652 -1.506635 -1.882113 1.626178 3.522159 3.224091 -0.748153 -3.026996 -1.288823 -1.426343 1868 1760 
-0.866570 -0.592683 2.530072 2.883656 1.619922 -2.706595 -1.085666 -1.782136 -3.011661 0.604799 2.192856 1.806676 0.330425 -2.087577 0.537425 -0.372944 1869 1761 
-0.495459 -0.609518 3.795458 2.860848 1.782938 -4.123897 -0.611253 -2.599118 -1.581894 -0.474977 -2.438095 -2.316620 1.920186 -0.106372 3.273434 1.724336 1870 1762 
-0.193522 1.926572 3.011319 3.195100 -1.160821 -4.649411 -0.957041 -1.172196 -0.715864 -1.330121 -4.276797 -6.405471 4.327296 0.881143 5.242861 2.276953 1871 1763 
0.071871 2.067804 -0.203869 1.102173 -1.742955 -1.796895 0.063828 0.438043 -1.734585 -1.237380 0.280050 -1.150877 2.289644 -1.316510 2.226495 0.643162 1872 1764 
0.646688 -0.106941 -0.942247 -1.024803 -1.916154 1.881867 1.309607 0.151983 -3.591287 -1.169143 2.023990 4.154960 1.371419 -3.329388 0.556668 -0.017219 1873 1765 
1.210219 0.592757 0.552984 -0.538536 -4.667076 1.371058 1.322843 0.155752 -2.543809 -1.428488 -0.153220 4.946286 2.915636 -3.106306 0.903795 -1.533895 1874 1766 
1.425390 2.397845 0.586686 -0.874128 -8.788512 0.659511 2.088807 2.504401 -1.807259 -2.715446 -4.690359 -2.568246 6.597344 0.115930 3.509843 1.558193 1875 1767 
3.713593 2.833415 0.638861 -5.672495 -12.519897 1.637559 3.971052 5.397911 0.461657 -1.160890 -5.509498 -9.954186 7.654319 1.715805 3.279117 3.513676 1876 1768 
4.288852 0.572126 -0.048050 -10.274811 -11.855401 5.370494 5.957435 5.989355 2.450918 -0.601852 -2.077051 -7.036283 0.963015 2.179884 2.155239 1.966130 1877 1769 
3.051838 -1.229725 -1.582115 -10.051802 -8.233606 6.268976 5.441058 6.335377 2.274109 0.927198 -1.921147 -7.695014 -2.550581 3.373228 1.070669 4.521538 1878 1770 
1.603865 -0.253470 -1.171758 -5.138963 -5.634118 3.588781 2.328060 4.677603 1.204630 0.251386 -1.652022 -6.117313 1.164935 5.536644 -1.011320 0.623060 1879 1771 
-0.391255 -1.226736 -0.261040 -1.035249 0.237501 2.352408 0.128249 0.196122 0.319222 0.044486 1.599224 -3.576933 -1.061627 5.201589 -1.581791 -0.944170 1880 1772 
-1.585921 -2.763453 -1.726441 -0.211820 7.816825 1.819648 -2.128469 -1.220369 2.232461 3.315105 6.444749 -0.356355 -10.391582 1.526908 -2.402991 -0.368295 1881 1773 
-2.872945 -3.261432 -3.436009 1.574745 11.639167 0.435137 -2.951329 -1.127334 2.615472 3.623251 7.176105 2.160283 -14.433108 0.031731 -1.116948 -0.056786 1882 1774 
-3.067403 -3.637183 -0.875468 4.935210 10.658660 -0.952963 -3.607749 -3.453104 3.260719 4.645577 5.169927 -0.686429 -13.353763 1.082547 -2.311842 2.193263 1883 1775 
-1.261340 -1.800224 2.349741 3.950413 5.843178 -2.891845 -3.162332 -3.027591 1.818036 3.425193 5.173232 3.022391 -10.080248 0.493872 -3.287113 -0.565363 1884 1776 
0.707083 -0.695842 1.351145 0.889874 2.480208 -2.275528 -1.008308 -1.448631 -0.364023 4.185100 9.205731 10.484295 -11.647471 -4.440125 -4.671559 -2.751947 1885 1777 
2.165567 0.634649 -0.322780 -1.782208 0.387385 -1.057219 -0.068903 0.043509 -0.358569 5.276055 10.696186 14.052489 -11.258569 -7.335978 -7.029055 -4.042560 1886 1778 
1.609714 1.253731 -0.914996 -3.483236 0.266072 -0.440949 0.995794 0.713869 -2.902296 0.115757 8.152970 15.166663 -3.769839 -6.493333 -3.923975 -6.345948 1887 1779 
0.504367 1.196761 -1.541887 -4.159238 0.786883 0.742775 1.134552 1.335786 -5.194241 -0.740393 7.248991 15.016994 0.575226 -7.866366 -4.230901 -4.809310 1888 1780 
-0.466785 1.400196 -2.336370 -1.382188 0.739924 -0.158845 0.534688 1.669380 -4.926873 -2.429825 1.140682 8.595879 6.601340 -5.364610 -1.145948 -2.470646 1889 1781 
-2.428269 1.589855 -2.107033 4.921023 1.758321 -1.116460 -1.011003 -1.606434 -1.797206 -3.923812 -5.669914 -0.313943 9.398948 -0.702359 3.771437 -0.763151 1890 1782 
-2.906201 2.115735 -1.198262 5.909700 2.440221 -2.472365 -1.374130 -2.514698 0.295059 -1.640773 -5.691403 -1.278850 6.923474 -1.179928 2.575627 -0.003206 1891 1783 
-1.350629 1.624757 0.061761 4.750445 0.484429 -2.016709 -1.452722 -2.101332 -1.525970 -3.229154 -5.449015 -1.204803 10.242666 -0.713182 2.628118 -0.748660 1892 1784 
-0.890501 1.448446 0.683785 2.477577 -1.727804 -1.212321 -0.820890 0.041710 -2.801019 -4.540441 -8.694860 -5.461395 15.231959 1.937309 3.710503 0.617944 1893 1785 
-0.539064 1.936647 1.016592 0.121747 -2.753538 -2.300622 1.141303 1.376935 -1.705497 -4.038477 -6.131067 -3.554410 11.181048 1.150910 2.853113 0.244380 1894 1786 
1.199682 3.049014 2.378747 1.558295 -6.195179 -2.927990 0.718183 0.219249 -0.580364 -1.926879 -1.596743 -0.026303 4.717275 -0.883809 0.524999 -0.228176 1895 1787 
1.896326 3.962372 3.483657 2.689546 -10.672382 -3.104011 0.163718 1.580774 0.315722 0.025814 -1.077753 -1.530971 0.379178 -0.087897 0.809608 1.166299 1896 1788 
2.931964 3.439125 3.488080 2.523063 -12.716657 -1.269843 0.112155 1.492115 1.837278 0.748626 -0.438395 -2.036281 -3.845855 0.593688 1.211304 1.929637 1897 1789 
3.301403 0.960416 1.201226 -0.720981 -9.374838 2.591113 1.043586 0.998075 3.554657 2.161768 -1.064362 -4.174858 -5.559768 2.666986 -0.570630 2.986208 1898 1790 
3.072631 -2.687146 -0.310828 -3.766595 -4.326384 3.142516 3.053451 1.822356 4.704844 2.404224 -0.098920 -4.856250 -6.813161 4.398996 -2.670844 2.931110 1899 1791 
1.628920 -4.311473 -0.151190 -1.480749 -0.321223 3.040448 2.487783 -0.892515 4.346601 3.137585 1.124465 -4.116442 -7.432784 2.429335 -3.316117 3.827355 1900 1792 
0.596853 -4.597997 -0.959850 -1.620634 1.559953 5.230651 1.256953 -1.465929 2.708755 2.914304 1.423451 -3.124941 -5.686379 2.597201 -3.519839 2.687448 1901 1793 
2.138257 -2.346004 2.061495 0.870861 -2.933631 1.260938 -0.797715 -0.254201 1.217930 0.816298 0.725507 0.525413 -2.115498 3.437792 -3.131822 -1.475620 1902 1794 
1.598575 1.657819 4.589561 3.958170 -4.382734 -3.239177 -2.771819 -1.410396 0.809377 0.432368 -1.594011 -1.229117 -0.690946 5.096923 -1.403151 -1.421443 1903 1795 
0.474578 1.033571 1.017615 -0.396555 -0.391455 0.284919 -1.082311 -0.940361 0.400198 -0.621892 -2.679058 -2.748638 1.381927 6.017889 0.032530 -1.782956 1904 1796 
0.854283 0.016738 -0.234320 -2.355685 1.239506 0.726903 -0.749453 0.502028 0.390718 -0.210747 -2.530199 -1.045111 1.601771 2.521887 0.419273 -1.147591 1905 1797 
0.864314 1.303454 0.051825 -2.166478 3.246680 -2.052407 -1.430190 0.182802 0.768555 1.061839 -1.760623 0.527930 -0.454895 0.510659 0.031084 -0.684550 1906 1798 
0.524437 1.058549 -0.030565 -1.775772 4.457780 -1.741069 -1.111295 -1.382064 0.522729 -1.138863 -2.365429 -0.653557 1.633574 0.917380 2.755451 -1.671285 1907 1799 
0.229967 1.070631 -0.430108 -2.619518 5.476440 -2.349902 -0.862102 -0.515409 -0.372921 -2.418961 -2.720990 -3.453667 3.930069 0.022951 4.029911 0.983608 1908 1800 
-0.975027 1.895220 -1.965149 -3.464397 7.130338 -1.841756 -0.499775 -0.279454 -2.409153 -2.900799 -0.414534 0.308419 4.977852 -2.482345 3.176921 -0.256362 1909 1801 
-1.957690 0.028954 -3.263136 -4.307230 9.096490 -0.278810 0.556120 0.125301 -3.894689 -3.471010 2.441797 4.623489 4.488623 -3.679158 1.778220 -2.287273 1910 1802 
-2.556150 -2.199801 -3.809230 -3.873467 10.786430 -0.192806 1.407807 0.437216 -3.305170 -2.671506 2.133310 3.298228 5.056080 -3.334091 -0.285036 -0.891813 1911 1803 
-2.387348 -2.572894 -1.508245 -0.307936 6.203690 -1.126367 1.142453 0.556647 -3.189643 -1.545543 1.273491 2.960792 4.778139 -4.075345 -0.643007 0.441116 1912 1804 
-0.954761 -1.427107 0.437007 0.220808 0.551612 -1.393392 1.005946 1.559887 -3.390242 -1.200506 3.110819 5.538935 3.320184 -5.837998 -1.774430 0.233238 1913 1805 
0.199275 1.293437 2.196634 0.298791 -3.265519 -2.029853 0.737546 0.569688 -2.688668 -1.259151 3.508339 3.544494 2.752534 -4.692275 -0.255749 -0.909525 1914 1806 
-0.015934 2.046211 3.410733 1.944284 -5.068429 -3.829629 0.690041 0.822723 -1.582725 0.222782 2.685438 1.396906 -0.100365 -3.494096 1.118747 -0.246688 1915 1807 
-1.508919 0.378382 0.016465 2.280882 -1.069113 -1.832303 0.158479 1.576126 0.101674 1.587137 0.905078 -0.100531 -2.999126 -2.172318 0.785555 1.892530 1916 1808 
-4.265862 -0.776352 -3.986020 4.611131 3.686903 1.398603 -0.786139 0.117737 2.556901 3.284599 -0.216198 -3.800593 -7.965532 0.737866 1.347256 4.055701 1917 1809 
-5.410117 -0.932544 -2.814456 9.419472 3.549226 1.494269 -1.899072 -3.406778 5.718622 5.642997 -0.382387 -5.650187 -13.402507 2.449839 0.877784 4.745839 1918 1810 
-2.974749 -0.260455 -0.389970 8.148008 -1.114843 1.977359 -1.410178 -3.975172 6.179632 6.196934 -0.189590 -5.403075 -13.837510 4.126140 -0.483801 3.411270 1919 1811 
-0.677577 -0.607627 0.132470 3.611888 -5.214673 3.595201 -0.142231 -0.697451 5.199129 5.331381 0.315619 -6.519186 -11.104313 4.384302 -1.347445 3.740513 1920 1812 
0.942843 -2.072090 2.023518 1.701944 -6.721394 4.436340 -0.046770 -0.264390 4.523678 3.791219 -0.551008 -6.802834 -8.016377 4.314686 -0.645123 3.385759 1921 1813 
0.770091 -2.315897 2.190110 0.444621 -4.947939 4.571143 0.659607 -1.371736 3.044958 1.122879 -0.971993 -3.893347 -4.291342 4.503100 0.115073 0.370672 1922 1814 
0.724150 -2.834493 -0.173362 -2.262010 -1.719233 3.545298 1.602385 1.117266 0.914722 -1.119532 -2.817676 -3.496096 2.758482 5.422705 -0.777805 -0.884799 1923 1815 
1.094333 -1.711907 -0.043489 -4.050526 -0.284997 2.360960 1.120723 1.514903 -4.802867 -4.388110 -3.698350 2.171153 14.728414 5.345439 -3.537731 -5.817948 1924 1816 
1.075778 -0.538163 1.783317 -2.355945 0.057514 1.511717 -0.515109 -1.019111 -5.828775 -4.840403 0.149812 10.461834 12.905083 0.479203 -4.110692 -9.216060 1925 1817 
2.374624 0.371316 3.112867 -0.046070 -3.502875 0.000723 -1.312838 -0.997745 -1.124637 -1.306404 5.368218 9.139658 0.459327 -5.228325 -2.443652 -4.864185 1926 1818 
3.915347 3.112012 4.336667 -0.253491 -8.260642 -3.397892 -1.189019 1.737016 -0.298552 -1.443359 3.791390 1.428625 2.079401 -4.245381 -0.745557 -0.566566 1927 1819 
4.116382 2.059898 2.193702 -3.312634 -5.137274 -3.022413 -0.052178 3.154516 -0.922999 -2.556790 -1.841523 -2.082838 3.695189 0.842081 2.288577 0.578304 1928 1820 
1.053815 -0.535920 -2.625486 -4.991488 4.176495 0.638347 0.594574 1.689663 -2.809942 -3.892545 -1.034554 2.041834 3.776628 0.060449 3.610175 -1.752046 1929 1821 
-1.433839 -0.282266 -3.670754 -3.159576 9.329871 -0.665511 -0.524600 0.406673 -5.587715 -4.795335 1.840604 6.743927 8.541814 -3.104554 1.231157 -4.869896 1930 1822 
-1.814737 0.913407 -2.054447 0.278519 9.014388 -3.044951 -1.577935 -1.714244 -7.181812 -4.599784 4.114961 10.388766 10.205205 -5.845197 -1.262946 -5.819193 1931 1823 
-2.745446 -0.256463 -1.716775 2.378874 9.790464 -3.401354 -1.413879 -2.635422 -5.253793 -2.836709 5.873620 10.717306 6.108838 -9.206693 -0.717166 -4.685402 1932 1824 
-6.306783 -3.247220 -5.967168 3.865428 15.555453 0.400476 -0.645515 -3.654671 -2.415123 -0.618863 3.264112 6.313452 3.213179 -9.261270 0.522148 -1.017633 1933 1825 
-8.308163 -4.775907 -10.241085 2.239614 21.145645 4.365698 -0.319338 -4.106463 -1.860048 -1.054896 -2.330176 0.511969 6.512594 -5.123189 1.019715 2.324031 1934 1826 
-5.362214 -3.820593 -6.426261 0.912300 16.023907 1.877409 -0.187859 -3.016689 -0.893290 -0.505371 -3.986124 -1.325572 5.025407 -2.122659 1.624238 2.183371 1935 1827 
-0.914392 -1.560128 -0.679442 0.785959 5.481410 -2.851508 0.653366 -0.915265 0.085846 -0.826714 -2.523867 -1.163296 4.572102 -2.100258 1.128285 0.827902 1936 1828 
2.341975 2.009035 2.478015 -0.353405 -3.747282 -4.659813 0.745934 1.185539 2.335359 -0.779874 -6.168064 -5.872140 4.759137 1.918284 1.951179 1.856118 1937 1829 
3.072758 3.777786 3.459431 -1.364264 -9.361097 -2.483199 0.784945 2.113641 4.098677 1.799963 -8.132201 -9.544438 -0.777995 5.843777 2.095100 4.617117 1938 1830 
3.327534 3.056032 2.626282 -2.692908 -8.914213 -0.790360 0.598551 2.789083 3.854241 2.283165 -3.352991 -6.355217 -4.327523 6.681465 -1.364213 2.581072 1939 1831 
2.988468 3.293992 3.508437 0.727880 -9.881034 -0.229344 -1.311403 0.903003 1.899124 1.862522 1.642919 -1.473043 -4.433254 4.276766 -3.849648 0.074615 1940 1832 
2.936180 2.997314 4.338511 2.413194 -12.531176 0.658126 -1.388945 0.576796 0.534328 2.064601 2.736157 0.755400 -3.403407 1.457485 -3.721048 -0.423516 1941 1833 
4.558814 2.767191 2.777583 -2.285844 -13.066829 2.520125 0.649414 2.079545 1.293893 1.570266 0.939382 -0.681287 -2.216015 3.406208 -2.856298 -1.456149 1942 1834 
4.522148 0.559489 0.835446 -5.871828 -9.353166 4.125196 2.086166 3.096548 3.414381 2.000400 -1.110212 -6.681696 -2.287556 4.845454 -1.219176 1.038403 1943 1835 
2.008069 -1.372610 0.136121 -2.853524 -4.771943 4.233286 1.034114 1.586486 5.124417 1.957197 -1.312382 -6.162788 -5.265258 4.058074 -0.259027 1.859767 1944 1836 
-0.878857 -1.871051 0.004329 1.267526 -0.947481 4.186250 -0.903006 -0.857711 3.438138 1.894453 -0.381662 -1.261965 -6.776718 2.825629 -0.588317 0.850440 1945 1837 
-1.444402 -2.910370 -0.772185 1.216539 2.894232 3.300896 -1.440962 -0.843748 1.298774 1.959814 -1.395344 -1.606971 -3.520197 2.235339 -0.022641 1.051226 1946 1838 
-0.733869 -2.741216 -0.923812 0.532970 4.031558 1.826436 -0.755809 -1.236257 0.367945 0.605721 -2.040901 -3.042175 -1.418295 2.312815 1.838189 1.376700 1947 1839 
-0.807257 -1.810627 -1.255061 0.469930 4.272678 0.513939 -0.115210 -1.268392 0.074320 -0.039863 -2.096763 -3.573630 -3.236345 1.645677 5.259585 1.967019 1948 1840 
0.291592 0.192592 -1.010162 -0.934758 1.571916 -0.607042 -0.381812 0.877674 -0.853595 -0.513608 -1.161110 -0.079753 -4.899428 -0.571477 6.448625 1.630346 1949 1841 
0.952243 1.878724 0.004748 -2.361915 -1.671739 -1.933350 0.807754 2.323535 -1.414384 0.153009 2.478958 1.933144 -6.369681 -2.783749 3.705125 2.297577 1950 1842 
1.428637 3.154450 0.043173 -3.153770 -3.045690 -2.833268 2.220907 2.185563 -1.772861 0.731601 4.344493 2.471778 -6.909018 -3.043155 1.819867 2.357295 1951 1843 
1.489617 3.372441 1.698571 -3.091087 -4.033374 -2.391799 1.399526 1.556103 -1.976889 -0.220525 2.377478 2.811370 -4.793635 -1.898993 1.873413 1.827781 1952 1844 
0.299290 2.632402 3.280585 -0.771057 -4.940925 -3.227061 1.510366 1.216400 -1.631418 -0.637813 1.752093 0.786526 -3.438794 -1.391070 2.244385 2.316092 1953 1845 
1.048319 2.462684 2.948875 0.169321 -6.879251 -4.420944 2.283981 2.387015 -1.291096 0.272835 2.374565 -0.880998 -2.450080 -1.762483 1.746208 1.991048 1954 1846 
1.124843 3.020947 1.576141 0.842040 -6.952148 -2.898338 1.672516 1.613999 -0.667990 0.395341 2.367183 0.175894 -1.631407 -1.708213 0.089859 0.979334 1955 1847 
0.448126 2.792994 1.566144 2.035330 -5.120170 -2.399970 0.334231 0.343315 0.259393 0.116798 1.567799 1.532335 -1.485627 -0.949565 -1.285830 0.244697 1956 1848 
0.586972 2.553918 1.843930 1.452147 -4.722772 -2.230696 -0.009292 0.525792 1.479252 0.824170 0.344180 -0.070934 0.092663 -0.418238 -2.212098 -0.038995 1957 1849 
-0.114542 2.611870 0.496646 1.329173 -3.154276 -1.803412 0.150253 0.484288 1.572311 0.817059 0.660078 -0.341014 0.324366 0.330363 -2.469353 -0.893810 1958 1850 
-0.451238 -0.050680 0.157732 1.252255 -0.553053 -0.700520 -0.088981 0.434485 3.009992 2.264052 0.160807 -1.516736 -2.619361 0.599074 -2.019340 0.121512 1959 1851 
-0.164266 -1.743555 0.319334 0.404560 0.352609 0.259837 0.413367 0.158114 3.928001 3.188839 -1.331965 -3.171643 -3.315379 0.557821 -0.845247 0.989573 1960 1852 
0.510192 -1.048650 1.671830 0.983960 0.248024 -1.361486 -0.717770 -0.286102 2.907330 1.725225 -3.375398 -4.579679 0.730954 1.644376 0.707135 0.240057 1961 1853 
1.402294 -0.338455 2.031827 -0.176634 0.379426 -1.186256 -1.341025 -0.771178 1.407732 0.796470 -4.138700 -3.845032 4.134324 2.648939 -0.269654 -0.734079 1962 1854 
1.351326 -0.278791 0.441998 -2.673517 1.363103 0.339103 -0.264559 -0.278661 1.150902 1.432872 -2.388489 -0.483187 2.126815 2.649049 -1.875882 -2.612080 1963 1855 
1.015004 -0.893824 -0.113258 -0.331397 0.624437 0.253228 -0.614390 0.060199 2.729160 3.757599 1.358566 2.219328 -6.057785 -0.205281 -2.281041 -1.520546 1964 1856 
-1.286716 -2.221770 0.144487 3.062171 2.715939 0.861556 -1.601082 -1.674585 2.591808 4.805883 4.435909 5.103367 -10.769621 -3.560682 -2.315055 -0.291609 1965 1857 
-3.767408 -3.881714 -0.698818 4.056881 7.423417 3.534259 -2.176676 -4.489941 0.329198 2.477417 3.038414 5.551786 -6.989821 -3.066364 -0.756604 -0.584026 1966 1858 
-3.149666 -4.455290 -1.810001 2.771745 7.379300 4.329411 -1.553383 -3.512117 -0.683723 0.220121 -0.266205 1.450311 -1.017876 -1.076089 1.738902 -0.365441 1967 1859 
-1.801686 -3.762521 -1.307250 0.509365 4.806718 3.137725 0.178025 -1.760376 -1.251139 -2.512681 -2.540294 -2.530998 5.748363 -0.739422 4.485415 -0.659243 1968 1860 
-1.077260 -2.815519 -0.700414 1.858003 3.709256 2.120759 0.665706 -3.760531 -3.866957 -5.261622 -3.307210 -2.175367 11.234924 -1.193386 5.072852 -0.503235 1969 1861 
-0.744031 -1.473291 -2.247435 1.115724 3.204395 1.367659 1.212504 -2.435525 -5.728450 -6.349930 -1.405451 2.592747 12.959455 -1.259588 2.427538 -3.236321 1970 1862 
-0.715216 -0.440894 -4.970689 -1.032049 4.209887 2.793085 1.488582 -1.332706 -5.802233 -6.443697 1.306591 4.960603 9.559333 -0.365069 1.624329 -4.839857 1971 1863 
-1.715349 -0.199928 -4.974169 -0.866703 4.090276 3.088059 1.085742 -0.507927 -4.066770 -4.714052 2.209973 3.886949 4.033104 -0.402768 2.230415 -3.176851 1972 1864 
-1.074156 1.810601 -2.556048 -0.142451 0.474281 -1.024211 0.272668 2.239317 -4.155880 -3.083730 2.435602 5.205845 2.655192 -1.980395 0.729585 -1.806219 1973 1865 
1.684726 2.852507 1.012555 0.363606 -4.469850 -2.684825 -0.052082 1.293362 -4.100086 -2.439160 2.050682 4.102366 3.720321 -1.796281 -0.493080 -1.044760 1974 1866 
2.309396 3.541639 1.775143 -2.920405 -7.319988 -2.040419 1.885980 2.768653 -2.743399 -2.722898 2.175067 4.192963 3.252908 -0.937376 -1.057098 -2.160168 1975 1867 
0.671305 3.510566 1.506044 -3.909971 -4.223148 -2.330805 1.118715 3.657295 -2.872379 -1.333401 2.437136 3.929291 0.895352 -0.323394 -1.888186 -0.844419 1976 1868 
0.265158 2.626772 1.906701 -2.777846 -1.847976 -2.760877 -0.415815 3.003882 0.116402 0.698016 1.461461 -0.065476 -0.511320 0.409749 -1.962003 -0.146829 1977 1869 
-1.091177 1.588747 0.740871 -1.936593 3.951217 -3.599354 -1.432346 1.778635 3.184065 1.575684 0.894524 -0.752907 -1.901651 0.469303 -2.524010 -0.945007 1978 1870 
-4.075862 -0.498498 -0.945469 1.370209 12.032804 -3.298209 -3.717454 -0.867522 3.995600 2.952655 2.232409 1.138370 -4.904707 -0.984696 -4.330749 -0.098882 1979 1871 
-5.309867 -0.977529 -2.760842 6.088115 14.366182 -2.926753 -5.903153 -2.576153 3.426970 3.241041 1.144647 0.982419 -2.922021 -1.202006 -5.055718 0.384669 1980 1872 
-5.256596 -1.811246 -2.245054 8.877042 14.006466 -3.273767 -5.921038 -4.375807 2.257661 1.939489 -3.208588 -0.869374 2.078291 0.873622 -3.395212 0.324111 1981 1873 
-3.639425 -2.501302 -2.079852 4.936826 11.984044 -2.080123 -3.057476 -3.562692 1.684899 0.533294 -3.126565 -1.654661 4.029707 1.050058 -3.092806 0.576075 1982 1874 
-1.915007 -3.532982 -2.730747 -0.205539 8.588153 2.043239 -0.937231 -1.309885 1.187677 0.884430 -1.025143 -1.401341 3.221213 0.794929 -4.492454 0.830690 1983 1875 
-1.062452 -4.625604 -1.575231 -0.266620 4.557009 3.156554 0.044203 -0.227860 3.201665 2.617547 -4.792143 -6.307142 2.485501 1.981514 -2.117246 2.930304 1984 1876 
0.062073 -3.556322 2.028306 1.417597 -0.001560 2.109081 -0.575004 -1.484172 5.269189 1.542083 -13.084578 -16.479054 6.743154 8.042164 2.857266 5.109776 1985 1877 
1.388409 -0.543568 4.880765 1.751329 -7.439390 1.951598 -0.794601 -1.194543 3.420034 -0.360314 -13.934860 -16.960615 8.119080 10.637154 4.100502 4.979020 1986 1878 
2.889420 0.439155 2.301111 -1.304803 -8.493275 2.574654 0.833651 0.760087 0.802551 0.151950 -6.001725 -8.004374 2.359770 5.380030 2.242777 3.069022 1987 1879 
4.248931 -1.032570 -3.031681 -7.267913 -4.254711 5.219655 3.199646 2.918643 -0.509082 -0.503056 -1.095227 -1.110502 -0.430227 0.595420 2.720529 0.332144 1988 1880 
4.331765 -1.069890 -3.781331 -7.821448 -4.101009 4.713258 4.781236 2.947420 -2.263371 -1.324869 0.227784 1.233868 -0.894877 -2.430855 3.369965 2.082354 1989 1881 
3.360394 0.795638 -0.536889 -2.217713 -8.021316 1.315692 2.855115 2.449078 -3.843117 -1.532029 1.379653 3.232397 -0.269401 -1.980126 1.806570 1.206051 1990 1882 
2.534496 2.665390 2.068066 1.988847 -11.742250 -1.286079 1.540831 2.230698 -2.919275 -1.220204 5.298372 4.981924 -2.408407 -3.368942 0.258299 -0.621766 1991 1883 
2.363979 2.983419 2.987149 1.278280 -10.414555 -1.588452 1.395571 0.994609 -0.278387 -0.406480 7.010209 4.591936 -5.740053 -4.900910 0.193132 -0.469447 1992 1884 
2.683117 2.016642 0.808025 -3.553892 -6.159778 0.320259 2.227579 1.658047 -1.654621 -2.587270 3.836430 5.458311 -1.634352 -3.308765 3.063365 -3.173095 1993 1885 
2.536860 -1.466554 -0.574477 -6.598499 -1.266959 3.243464 4.229828 -0.103664 -2.687386 -2.719808 3.127233 4.178643 -0.242817 -2.044827 2.319791 -1.930827 1994 1886 
1.638063 -2.058820 -0.475800 -4.048283 -0.893385 2.112249 3.206499 0.519476 -1.119678 -2.155267 2.209986 2.507574 0.344303 -0.581590 0.021713 -1.227040 1995 1887 
-0.326790 -0.663869 -0.162828 -0.579431 -0.989293 0.011658 2.131449 0.579103 -1.594930 -3.655711 0.963663 4.251350 1.230872 0.347928 0.386634 -1.929805 1996 1888 
-0.650859 -0.346919 1.823216 -2.645034 -0.728089 0.953814 2.436969 -0.843098 -1.612196 -2.601194 3.414879 6.108708 0.005357 -0.443662 -2.417741 -2.454151 1997 1889 
1.154468 0.859250 2.247318 -5.554431 -3.453606 0.519153 2.642169 1.585678 -0.820846 -0.531697 6.028937 7.171395 0.720635 -2.077717 -5.835343 -4.655364 1998 1890 
2.395201 1.063645 2.542094 -4.734940 -6.359276 0.494395 2.161059 2.437821 0.437065 1.129811 5.595063 6.096992 -0.893670 -1.765963 -6.519139 -4.080159 1999 1891 
3.065701 2.645758 4.912081 -2.347496 -10.857027 -0.312293 0.594967 2.298309 1.908000 1.213350 4.054908 3.700241 -3.922753 -0.374256 -3.748080 -2.831410 2000 1892 
1.992897 3.138914 5.126021 -0.188148 -11.525984 -0.125429 -0.224776 1.806506 2.083831 3.002040 2.267982 -0.239435 -5.963012 0.076485 -1.822785 0.594895 2001 1893 
1.738522 2.277902 3.797406 1.225803 -9.708220 -0.570427 -0.561356 1.800369 2.231203 4.883899 1.250320 -3.881093 -5.647089 0.024754 -1.745430 2.883435 2002 1894 
0.488058 2.653485 2.110949 4.095174 -6.258493 -1.980274 -1.045837 -0.063061 4.520538 5.824196 1.838258 -2.539203 -9.187223 -0.046256 -2.343215 1.932903 2003 1895 
-2.113403 1.230472 -2.696862 5.608441 2.575533 -0.972105 -1.989513 -1.642564 4.631481 6.671881 2.696815 -2.018940 -13.458497 0.142711 -2.129353 3.463903 2004 1896 
-3.752375 -1.364700 -4.504180 6.693527 12.236111 -0.771624 -4.675212 -3.861547 3.431579 5.575708 1.161205 -4.393436 -10.531685 1.394621 -0.383822 3.745831 2005 1897 
-4.989882 -2.914328 -3.906433 6.653325 17.637093 -1.715676 -6.053458 -4.710642 2.888589 3.710648 -5.409859 -5.690221 -5.295495 3.328042 2.391623 4.076673 2006 1898 
-4.404414 -2.585041 -4.833396 4.295210 17.525785 -2.025059 -4.489085 -3.484002 3.329157 2.445515 -10.731679 -9.632860 -2.078518 4.546827 5.926878 6.194680 2007 1899 
-3.629606 -2.350725 -2.415867 3.530277 15.356751 -2.056579 -3.144179 -5.290072 2.387434 0.881947 -8.761384 -8.940343 1.011374 2.963422 5.973237 4.484312 2008 1900 
-1.617426 -3.400665 0.594400 3.537974 10.935017 -3.561255 -1.902692 -4.585353 -1.807923 -2.250329 -6.383718 -9.151705 6.136010 2.706359 6.987684 3.763621 2009 1901 
0.595298 -0.908960 3.452330 5.005737 1.279021 -6.060532 -1.032688 -2.330207 -2.728199 -2.039741 -2.130957 -7.096808 5.353254 1.117066 4.893501 2.631884 2010 1902 
1.867577 3.535890 2.666287 2.963906 -5.246798 -6.659691 0.032689 0.840139 -2.700765 -0.737566 2.578682 4.111627 2.953838 -4.056630 -0.727742 -1.421444 2011 1903 
2.503857 4.795083 -0.479270 -2.259180 -5.130245 -3.741998 1.733973 2.577781 -4.295309 -2.362692 0.440890 4.758828 7.239145 -2.434975 -1.128331 -2.217556 2012 1904 
3.530187 5.827645 2.753831 -0.911145 -9.817868 -4.311501 0.450306 2.478546 -5.801149 -3.995491 0.039571 4.260125 8.434528 -1.421002 0.861271 -2.377854 2013 1905 
1.995728 5.072888 4.874473 2.917901 -9.838888 -4.270594 -1.579963 0.828455 -5.828059 -4.275697 3.250268 8.151302 6.957910 -4.571231 0.129310 -3.813804 2014 1906 
-1.731083 1.846483 0.587429 -0.176932 -1.237345 -0.196477 0.072798 0.835127 -5.803179 -5.056411 5.273239 10.018170 8.276727 -5.642508 -1.235142 -5.830896 2015 1907 
-4.299555 -0.212180 -4.251526 -0.001272 4.018942 4.085807 0.747660 -0.087875 -6.145853 -4.996820 5.240914 8.730603 9.607971 -5.408743 -0.565734 -6.462337 2016 1908 
-6.270256 -1.754531 -7.892063 2.040678 6.467341 7.694544 0.325224 -0.610936 -5.355095 -4.194134 4.098899 5.615387 10.045481 -3.484597 -0.826152 -5.899790 2017 1909 
-3.869379 -2.542770 -7.841580 -1.719573 5.451265 6.331233 1.759949 2.430854 -3.410712 -3.440584 -0.066575 0.321008 10.651259 0.288665 -1.537454 -2.805608 2018 1910 
-1.545100 -2.574093 -5.317299 -2.968213 3.968191 5.092958 1.968632 1.374924 -0.435855 -2.658073 -4.081961 -4.786540 9.120292 3.935158 -0.523682 -0.569339 2019 1911 
-1.915147 -3.428966 -4.045477 -4.902397 4.298646 6.036536 2.616904 1.339900 2.284156 -0.871460 -2.859227 -4.108264 1.084515 3.218421 0.333904 0.917956 2020 1912 
-1.245432 -5.133337 -2.693609 -5.119034 2.899502 7.208498 1.878305 2.205107 4.472747 2.203402 -1.186821 -4.309565 -6.744765 2.304367 -0.250428 3.511063 2021 1913 
0.017594 -4.711328 -2.510815 -4.275690 0.889293 7.413636 1.413454 1.763858 4.950987 3.425589 -0.390045 -2.298049 -11.850472 2.330486 0.866879 2.964626 2022 1914 
0.723247 -2.192323 -1.308586 -2.695562 -1.111266 4.658584 1.668106 0.257800 5.908301 5.114043 0.537629 0.090891 -16.354217 1.418614 0.099318 3.185421 2023 1915 
1.461386 -0.973603 0.459679 -2.049588 -2.498030 2.114610 0.204240 1.281307 4.936131 5.490342 0.791126 1.253951 -13.314423 0.481644 -2.023162 2.384390 2024 1916 
2.560824 -0.247933 1.813939 -3.909334 -3.832450 1.073170 1.128221 1.413565 1.654954 4.667302 1.199976 3.652087 -7.545173 -0.694392 -3.132480 0.197727 2025 1917 
2.555703 0.292553 3.751777 -2.757757 -4.431157 -0.600759 1.458180 -0.268540 2.191755 4.645535 2.867200 5.785277 -6.395193 -2.618605 -4.647794 -1.828176 2026 1918 
1.990700 1.196552 5.379477 -1.107764 -2.962427 -3.169440 -0.553007 -0.774090 3.262089 4.482024 2.581338 3.743619 -6.728973 -2.770375 -3.661159 -0.908563 2027 1919 
1.977792 2.674984 6.958789 3.089887 -3.529497 -6.151141 -2.727067 -2.293746 2.216537 3.835680 -0.795321 0.217111 -5.876283 -0.510990 -0.358258 1.271523 2028 1920 
2.507910 4.513310 6.418274 4.356109 -4.644487 -8.473700 -3.645780 -1.031636 1.674261 3.096744 -2.856552 -1.445973 -4.690668 0.008724 2.488443 1.725020 2029 1921 
2.846280 6.123376 4.461930 1.624578 -2.496279 -8.221311 -2.457945 -1.880629 2.012516 1.275940 -4.301921 -5.742209 -2.327914 2.440458 4.709367 1.933763 2030 1922 
2.367752 6.468306 3.362760 1.292561 -0.989085 -7.835311 -1.235961 -3.431022 1.164184 -1.789516 -5.918359 -8.266495 1.259646 4.780581 5.935390 2.834569 2031 1923 
1.542536 4.497390 3.362137 2.091719 -0.468288 -6.787356 -1.226297 -3.011840 -0.090881 -1.487171 -3.339467 -5.052197 1.904560 2.650297 2.903838 2.511021 2032 1924 
0.174809 1.922211 3.283635 1.838845 0.221941 -3.828866 -0.805835 -2.806740 -1.426750 -2.067668 1.350123 -0.236394 1.711686 -0.546225 1.501169 -0.285942 2033 1925 
-0.441868 2.909838 0.950836 1.936879 -1.746229 -3.399693 -0.864265 0.654502 -2.194674 -3.544004 3.292945 1.967987 0.477948 -1.046954 1.672930 -0.626179 2034 1926 
-0.897171 2.601776 -0.676046 2.911021 -2.807246 -2.287035 -0.234761 1.389462 -1.907960 -2.604667 3.196993 1.936049 -0.383411 -0.521593 -0.410945 0.695534 2035 1927 
-1.340518 0.022281 -1.131132 0.192965 -2.054047 0.963572 1.445496 1.901383 -3.590870 -4.006763 0.822192 0.283400 6.279074 0.170740 -1.273295 1.315523 2036 1928 
-0.468070 -2.874566 -2.898143 -2.499649 -0.575555 2.852565 2.447461 4.015957 -4.896277 -6.538981 -1.808133 0.449869 15.246618 1.234953 -1.853731 -1.834318 2037 1929 
-1.869919 -4.616972 -2.710959 0.156115 0.539156 5.796878 1.748192 0.957509 -4.898244 -7.148164 0.221127 4.406745 17.883204 -0.347189 -4.240063 -5.877418 2038 1930 
-3.328101 -4.766995 -3.241035 1.189525 1.403618 8.414992 -0.096356 0.424352 -3.471185 -5.984942 3.724953 6.956261 15.347862 -3.458288 -6.335712 -6.778949 2039 1931 
-2.033678 -5.981765 -4.878350 -2.254939 2.754220 9.597331 0.667752 2.129427 -3.026336 -4.211167 4.078550 7.040220 11.990384 -5.280663 -5.697170 -4.893818 2040 1932 
-1.006417 -6.603651 -4.707980 -4.230244 3.687384 9.765112 1.183429 1.912367 -5.589905 -4.311732 1.142427 7.941099 12.988710 -3.138938 -3.732678 -5.298982 2041 1933 
-0.823003 -5.022066 -3.199543 -2.116494 3.221374 7.476338 0.051108 0.412286 -5.227129 -3.646116 -2.514813 4.700295 13.225438 0.883843 -1.684200 -5.737318 2042 1934 
-0.471865 -2.485641 -2.095512 -0.637182 1.263798 4.712307 -0.371053 0.085147 -0.153000 -0.363545 -2.242562 -0.873474 5.340778 2.488609 -0.563874 -3.632930 2043 1935 
0.330732 -1.732311 -1.224988 -0.662190 0.979556 3.147941 -0.135722 -0.703018 5.862876 4.410908 0.650738 -4.127520 -8.951244 0.803329 0.570476 0.780437 2044 1936 
1.706932 -3.871383 -1.046851 -2.570272 2.262889 2.939264 1.045715 -0.466295 8.237396 6.992917 2.763675 -5.342445 -19.548410 1.388336 1.355392 4.153139 2045 1937 
2.664607 -4.446275 -0.712034 -2.702652 1.866966 0.762124 2.181844 0.385419 7.327107 6.934333 2.534994 -6.004684 -19.258297 3.433440 1.650880 3.382227 2046 1938 
2.820743 -0.828288 3.645379 1.024512 -2.288573 -3.833466 0.530207 -1.070514 5.326031 7.124847 0.824930 -5.298695 -16.872305 1.786789 1.611094 5.497310 2047 1939 
2.761693 2.137045 6.820215 2.898049 -4.960210 -6.477014 -2.053076 -1.126703 3.159291 5.791861 1.167851 -0.291260 -13.530091 -0.522940 1.007279 3.218009 2048 1940 
1.920498 4.727042 7.324120 2.806520 -4.564999 -8.500258 -2.478516 -1.234408 1.151801 4.682817 1.556690 2.680513 -11.522577 -2.101947 2.268980 1.283724 2049 1941 
1.404297 5.117748 5.093269 -0.173543 -2.722505 -8.268430 -1.112555 0.661720 1.189463 3.744605 -1.276904 -0.368492 -9.870496 -0.561382 4.025079 3.118127 2050 1942 
1.292457 4.413006 2.384444 -1.224280 -2.961907 -8.122418 1.278140 2.940559 1.437289 1.431088 -5.647975 -5.676526 -2.393853 2.435163 4.896128 3.518686 2051 1943 
0.618839 2.909560 1.104647 0.426206 -1.569255 -7.131840 1.637543 2.004301 -1.291086 -1.164069 -6.954305 -5.033031 5.212938 2.390113 3.510735 3.328705 2052 1944 
-2.191357 -0.957516 -3.171460 1.942810 4.722109 -0.680773 0.820424 -0.484237 -2.686254 -2.903478 -4.129877 -1.727148 8.405909 0.480852 2.049233 0.510763 2053 1945 
-5.428629 -1.314708 -5.336031 5.961042 8.104218 1.387467 -0.916017 -2.457342 -2.785162 -4.277023 -1.583717 -0.155829 9.396032 -1.537894 1.729630 -0.786037 2054 1946 
-4.387256 0.112107 -3.437920 7.755823 6.912947 -1.636277 -2.329728 -2.989696 -2.889064 -3.931951 -0.244177 -0.251013 11.046912 -3.252428 0.058427 -0.536707 2055 1947 
-1.919171 1.314783 -1.144545 6.552962 2.016779 -2.406004 -2.259148 -2.155655 -1.994035 -2.218131 -0.304679 -1.315937 8.950813 -2.956676 -0.210595 0.049239 2056 1948 
-0.616771 1.073437 -0.711222 3.222921 -0.142912 0.077581 -1.957032 -0.946002 -0.826872 -1.340755 0.196924 -0.873965 3.786469 -1.425656 -0.668826 1.152681 2057 1949 
-0.568056 -1.287815 -4.123617 -4.401031 3.417909 4.251186 0.762224 1.949199 0.406596 -0.178779 1.166955 -1.240544 1.000368 -0.205445 -1.998103 1.048952 2058 1950 
-1.582780 -2.969042 -4.883525 -5.515796 6.127079 6.839096 0.769441 1.215528 1.412967 0.855183 -0.351528 -2.246103 -0.422485 1.991097 -1.933731 0.694600 2059 1951 
-0.744588 -2.510209 -1.584209 -0.874156 4.685591 4.345906 -1.829646 -1.488687 1.977707 0.366973 -1.155304 -2.115617 -1.483194 3.855851 -0.656079 -0.790337 2060 1952 
0.850425 -3.324684 -0.101954 -0.671223 3.615600 3.468202 -2.287764 -1.548601 1.605086 -0.924740 0.092363 -1.112206 -3.299956 3.961064 0.863006 -1.184617 2061 1953 
1.512574 -3.337671 -0.790419 -2.841649 2.966666 3.846519 -1.501799 0.145780 1.482748 0.957369 1.341956 -1.641742 -5.819532 2.548600 -0.487682 1.618283 2062 1954 
2.012172 -1.202749 -1.147408 -3.834263 1.673274 2.109006 -0.637330 1.027299 2.321924 2.107176 1.114179 -0.600027 -5.722380 2.502333 -2.094094 0.370891 2063 1955 
2.456048 -0.257215 0.643350 -3.829282 -0.431405 1.222652 0.190994 0.004857 1.417710 0.837298 1.706834 1.406122 -5.408323 2.959269 -1.824578 -1.094333 2064 1956 
1.977153 1.288694 1.787740 -2.622130 -4.217656 -0.098796 0.897116 0.987878 1.022279 1.550843 3.069253 2.186090 -7.078113 1.779910 -2.157080 -0.373182 2065 1957 
2.129407 1.415826 1.252785 -2.250580 -5.156580 -0.092929 1.342704 1.359366 1.776475 2.017938 2.616040 0.327121 -6.377875 0.960479 -1.078225 -0.241953 2066 1958 
2.726110 1.149907 1.739622 -2.541332 -4.544747 -1.233580 1.546049 1.157970 0.915799 0.654555 0.141260 -2.980581 -2.902213 1.178502 1.735285 1.257394 2067 1959 
2.191464 2.643273 3.329092 0.155969 -6.559489 -2.562984 0.437431 0.365243 -0.109599 -0.668631 -1.443114 -3.145676 -0.015468 0.838381 2.538330 2.005778 2068 1960 
1.909185 4.679522 3.085847 0.202263 -9.032130 -3.259279 0.334777 2.079815 -1.158641 -1.186874 0.280581 0.603522 0.698335 -1.449220 1.572108 0.640188 2069 1961 
0.328294 4.517062 0.947529 0.044498 -5.174569 -2.395940 1.142410 0.590715 -2.568529 -1.164713 1.583737 5.222790 -0.211179 -3.403038 1.137216 -0.596283 2070 1962 
-1.886245 2.682461 -0.019367 0.842746 1.192269 -2.294715 1.607461 -2.124610 -3.354888 -2.196445 0.525289 5.432137 2.230460 -2.629042 1.275327 -1.282839 2071 1963 
-3.112059 0.846810 0.631962 2.567559 2.819836 -2.931979 0.997400 -1.819529 -3.500020 -2.893961 0.152922 4.400199 4.493975 -1.315256 0.838196 -2.176055 2072 1964 
-3.579358 -0.162712 1.856576 5.420966 1.668508 -1.995264 -0.145254 -3.063462 -3.209862 -1.837627 0.592818 2.871966 3.727271 -2.325699 0.708387 -0.527254 2073 1965 
-3.042813 1.159119 0.974829 4.659141 -0.923003 -1.537395 -0.079823 -1.210055 -1.538335 -0.660928 -1.149203 -0.325847 2.493222 -1.114911 1.818219 0.477783 2074 1966 
-2.184122 2.282240 -1.526513 2.053985 -3.655139 1.262748 1.609730 0.157071 0.937056 2.218299 -3.755894 -3.284920 -1.807288 0.545292 2.546776 2.600679 2075 1967 
-1.169169 2.269258 -2.244998 0.675348 -4.598526 1.967795 2.250135 0.850157 2.960359 3.982169 -3.818077 -4.602926 -5.632189 0.096385 2.797961 4.216319 2076 1968 
-1.753389 0.560781 -1.512424 2.909247 -2.730906 0.943395 0.658492 0.924804 3.197041 3.334201 -0.831644 -0.953815 -6.344719 -1.003678 0.928394 1.674220 2077 1969 
-1.714465 0.044357 -1.382090 2.339156 -1.431909 0.569172 0.283490 1.292290 1.786422 1.996584 0.916990 3.296841 -3.929037 -2.397550 -1.151270 -0.518979 2078 1970 
-0.685893 0.102342 -1.642999 1.242592 -1.528508 0.958205 -0.337494 1.891756 -0.055772 -0.311769 0.362197 4.446912 3.550296 -0.611914 -3.167495 -4.212456 2079 1971 
-0.956685 -1.492951 -0.973707 2.373395 -0.207452 2.384005 -0.646931 -0.479674 -2.157545 -1.772733 0.721150 6.569576 6.869239 -0.369207 -5.097797 -4.762683 2080 1972 
-0.226231 -1.992962 0.123225 1.810044 1.793074 2.454938 -1.745598 -2.216490 -2.621611 -2.398520 2.575225 8.257736 4.447278 -1.201865 -4.630568 -4.427675 2081 1973 
0.237106 -2.637827 0.530689 0.766597 2.985007 2.778394 -1.884760 -2.775206 -1.499144 -3.375539 3.231758 6.012428 6.231123 -0.803565 -4.342003 -5.455058 2082 1974 
0.456182 -4.034858 0.877609 -2.857549 4.899553 2.946945 -0.334337 -1.953543 -1.247448 -4.392420 0.616659 1.682075 9.729730 1.458244 -2.801273 -5.045567 2083 1975 
1.533280 -4.061869 0.547345 -6.916903 5.396903 2.928469 0.923416 -0.350641 -2.575836 -4.845022 0.274954 -0.941976 12.161032 2.661350 -2.684927 -4.049574 2084 1976 
2.653657 -2.574728 -0.220176 -6.265841 1.525587 2.790956 1.339441 0.751103 -3.224747 -4.373221 2.140063 -0.464674 11.004210 0.695377 -2.860572 -2.916435 2085 1977 
3.758456 -1.191518 -1.338281 -6.408971 -0.813045 2.458716 1.671953 1.862689 -3.250316 -4.269241 2.990917 2.090133 8.324767 0.098716 -1.776047 -4.208930 2086 1978 
5.253140 -0.387885 -1.241021 -9.108154 -2.796339 1.788032 3.690443 2.801784 -5.324702 -4.395415 5.154644 6.608322 6.585513 -2.119232 -1.889380 -4.619752 2087 1979 
5.840701 2.514269 2.796984 -5.875896 -9.872792 -1.022452 2.648296 2.970890 -6.384234 -1.655405 7.622110 10.018183 3.567246 -5.693379 -3.684976 -3.789545 2088 1980 
6.461252 6.323244 5.170377 -2.974691 -18.059513 -3.262172 2.091230 4.250273 -3.339383 1.658238 8.725692 9.326070 -3.286557 -8.614621 -3.098141 -1.371297 2089 1981 
6.606925 7.105187 5.314681 -4.488897 -19.388564 -3.342286 2.809465 5.383488 0.573808 3.090281 5.671050 4.486784 -8.331300 -7.815760 1.692651 0.632487 2090 1982 
5.253619 7.745273 4.779814 -4.822889 -17.764358 -4.888382 2.653953 7.042971 1.684135 3.663477 -1.625838 -4.258704 -3.272122 -3.386276 3.500668 3.694660 2091 1983 
4.100862 5.433717 1.428342 -5.482724 -10.947259 -4.109593 2.078055 7.498601 3.261727 3.622228 -6.746555 -10.444591 1.137031 -0.602080 3.982172 5.790068 2092 1984 
-0.373011 -1.712496 -5.424804 -6.978880 8.757567 0.870239 2.296185 2.565199 5.562680 5.155059 -5.494921 -10.832451 -1.940870 -1.821891 3.645565 5.726828 2093 1985 
-7.097916 -7.235417 -10.978327 -2.478791 26.539497 3.042574 0.367643 -2.159265 6.597159 6.225789 -2.353753 -7.408250 -9.250539 -1.893968 3.182375 4.901187 2094 1986 
-12.586487 -8.865349 -13.150603 6.088029 33.607282 3.702038 -2.821804 -5.973106 6.065706 5.193053 -2.805248 -6.419690 -11.015134 0.724342 3.438221 4.818750 2095 1987 
-14.029909 -7.828873 -10.644630 10.940712 35.186964 0.120832 -4.604489 -9.140607 5.154034 3.647023 -7.713256 -8.293014 -7.586482 3.397117 4.031849 7.362729 2096 1988 
-11.593963 -5.305693 -1.972904 17.131553 28.299523 -6.690210 -7.631499 -12.236806 5.226114 3.158137 -9.356648 -7.361814 -7.013510 5.797619 3.183325 6.366778 2097 1989 
-8.301103 -2.533923 4.221750 19.826465 15.235371 -9.663484 -6.870527 -11.914549 3.634089 2.873445 -3.828495 -6.032409 -7.557102 5.843902 0.653905 4.412664 2098 1990 
-3.688688 -0.732252 7.212088 12.387416 3.734444 -7.823891 -4.228843 -6.860274 3.871924 2.289508 -0.110383 -5.139877 -7.147095 5.394322 -0.921151 1.762752 2099 1991 
1.339591 0.715666 5.936399 3.456239 -5.736410 -2.544922 -1.203005 -1.963558 2.356670 2.508881 0.477706 -3.784870 -4.225359 4.732407 -2.664702 0.599268 2100 1992 
3.268536 0.555571 3.612701 -0.847270 -8.673480 1.556688 0.066089 0.461164 -0.057228 -0.048981 -1.753741 -4.581404 1.410801 5.347778 -0.513731 0.196506 2101 1993 
2.234226 -1.396058 2.371726 -2.334737 -5.323185 4.401257 -0.105784 0.152557 0.708389 -2.829364 -7.076024 -8.381628 7.853843 7.454837 2.888698 -0.618750 2102 1994 
0.885930 -0.736385 1.964392 0.052071 -4.582161 3.158410 -1.143462 0.401206 0.303253 -2.789847 -8.050729 -10.524227 9.134048 8.361353 2.684375 0.881774 2103 1995 
0.586803 1.888189 4.455065 4.174241 -6.030547 -0.144211 -4.120446 -0.809093 -0.129451 -2.508244 -6.466541 -7.045450 8.851419 6.525087 1.484471 -0.711292 2104 1996 
0.321826 1.721096 3.787322 4.395091 -3.619707 1.368140 -5.235435 -2.738334 0.383816 -2.946339 -6.953159 -3.107444 7.674242 5.095750 1.956794 -2.103660 2105 1997 
-0.672667 -0.677200 0.674602 0.870409 0.835791 4.322063 -4.162873 -1.190124 0.425785 -2.179226 -5.076132 -2.934785 2.200515 4.689339 3.227557 -0.353052 2106 1998 
-0.494656 -3.311558 -3.001276 -4.566549 4.976871 5.692596 -0.467081 1.171653 0.565734 0.379605 -2.611746 -3.043005 -2.190192 2.759580 3.315373 0.824652 2107 1999 
-0.231450 -3.424081 -4.646267 -4.838280 3.706275 6.743785 1.411567 1.278452 0.798957 0.713411 -0.259978 -1.667293 -4.565733 0.989047 3.120521 0.871067 2108 2000 
-0.075300 -0.560684 -4.550639 -1.918852 -1.629619 5.122408 1.274395 2.338291 -1.458356 -0.800759 2.050631 2.176074 -4.863415 -1.122445 3.507553 0.510717 2109 2001 
-0.400950 -1.000776 -3.606813 -1.022439 -0.812024 4.043071 0.862000 1.937930 -2.198708 -0.613482 3.923297 5.388207 -5.963851 -3.804547 2.036949 1.232135 2110 2002 
0.456752 -1.686250 -3.342482 -3.993065 1.659397 2.597922 2.163290 2.144436 -1.675081 -0.479192 7.377592 8.204264 -6.752891 -5.255696 -0.990650 -0.428346 2111 2003 
1.969319 0.107995 -2.025457 -4.880506 -1.030926 -0.599351 3.127474 3.331453 -3.856611 -1.402017 9.259190 11.420367 -4.447279 -5.493949 -2.375704 -3.103996 2112 2004 
3.867153 1.333153 2.407014 -5.055247 -6.972532 -1.720574 2.652750 3.488284 -7.126306 -3.735550 9.736562 16.048888 -0.595174 -7.108248 -2.563204 -4.656968 2113 2005 
6.980133 3.164235 4.018828 -11.312899 -10.766661 -2.599386 5.212912 5.302838 -8.290893 -4.215880 9.712407 15.847580 3.682950 -8.314221 -4.133518 -4.288425 2114 2006 
8.046117 4.824602 3.133308 -11.944271 -13.045386 -3.459239 5.646292 6.798577 -6.422542 -2.653787 9.175034 11.727251 4.012968 -7.736794 -5.268882 -2.833248 2115 2007 
7.568440 6.323821 0.935592 -8.969574 -13.821267 -4.371038 5.297464 7.036562 -2.646644 -1.948600 7.415762 8.867007 2.099362 -6.445522 -4.432882 -2.908483 2116 2008 
6.197698 7.047551 1.660960 -6.311882 -13.685263 -4.567662 3.974996 5.683603 1.521447 -0.619851 2.291552 -1.579781 2.648848 -2.531663 -2.297855 0.567302 2117 2009 
5.310960 7.955083 5.004740 -0.969011 -15.577583 -6.019816 0.486281 3.809347 3.362409 0.893982 -0.272896 -4.635846 1.677576 0.845125 -3.565930 1.695580 2118 2010 
3.972241 7.474626 6.882036 2.768150 -15.417734 -7.476668 -0.258577 2.055926 3.709566 2.214218 2.157123 1.759021 -0.718694 1.395101 -9.609616 -0.906718 2119 2011 
1.901538 4.951474 6.387634 4.570638 -11.103413 -6.587382 -0.448342 0.327853 3.956763 2.969099 1.788514 1.244092 -0.043534 1.785050 -11.002662 -0.697322 2120 2012 
-0.020566 2.239632 4.278467 5.520652 -5.114997 -3.192984 -1.179627 -2.530577 4.563896 4.711266 2.090285 -0.184142 -1.583273 0.270691 -10.055107 0.186384 2121 2013 
-1.366592 0.361153 3.164623 5.315396 -1.927852 -1.226161 -1.221427 -3.099140 3.263719 3.709572 3.233478 1.597795 -1.220299 -0.271286 -8.836114 -1.476866 2122 2014 
-1.184571 0.324293 1.578522 4.554760 -0.658528 -1.984338 -0.487213 -2.142925 -0.335362 0.969165 0.468035 1.560556 5.483087 0.512768 -6.414313 -2.243936 2123 2015 
-1.818943 -0.470936 0.618459 4.896649 0.451718 0.242055 -0.848035 -3.070967 -3.046989 -0.718226 -0.491343 4.144270 8.573920 -0.793989 -3.589018 -4.078626 2124 2016 
-2.582700 -2.282272 0.366089 4.600053 3.082090 1.604725 -1.827502 -2.960483 -4.728869 -1.903326 -2.645200 2.880816 6.624278 0.306109 2.608405 -3.142213 2125 2017 
-3.164444 -3.426635 -1.013357 4.138689 6.867357 2.261474 -2.109150 -3.553934 -2.877330 -0.747120 -5.300289 -4.334835 2.127440 0.594085 8.574309 1.963739 2126 2018 
-4.235662 -3.191265 -3.048406 5.320853 7.880837 3.871982 -2.200190 -4.398149 0.109792 0.332120 -4.304363 -4.887219 -5.035461 -1.353572 13.379513 1.759191 2127 2019 
-5.285110 -3.976753 -5.778710 4.182798 11.180544 4.233132 -1.738841 -2.817059 0.557446 -0.878601 -4.965982 -4.961456 -8.207535 -1.570149 17.789826 2.236451 2128 2020 
-6.398240 -5.336580 -8.435191 0.925000 16.552003 5.583120 -0.707567 -2.182545 -0.712517 -2.756192 -6.905285 -7.065026 -4.057925 -0.888316 18.947577 3.437684 2129 2021 
-5.585647 -5.850078 -10.271006 -3.201817 17.430210 6.982723 0.899723 -0.404108 -2.195003 -1.994226 -7.836948 -7.283598 -0.053689 1.081643 15.914214 2.367607 2130 2022 
-3.534216 -5.653202 -9.585925 -6.118413 14.349541 6.668856 2.430207 1.443154 -1.443768 -1.490646 -4.388882 -3.469652 -1.539039 0.704360 11.611678 0.015949 2131 2023 
-1.812336 -2.875327 -5.024267 -3.929992 6.653169 3.789606 1.847293 1.351854 -0.907317 -0.098586 -0.909008 -2.032579 -3.679228 -0.434527 6.543070 1.518174 2132 2024 
0.680692 1.657920 1.430831 2.572722 -5.364151 -1.748139 -1.367111 2.137234 -0.562261 0.783372 -0.743107 -2.264798 -1.941034 0.296552 1.802471 2.628805 2133 2025 
3.140386 4.771054 4.742719 1.506425 -12.219077 -4.949746 -0.584633 3.592871 -0.659889 -1.522595 -0.235676 1.076468 1.733193 0.981224 -0.916145 -0.456580 2134 2026 
3.740943 5.284619 4.229583 -2.944760 -11.721548 -4.681453 1.493667 4.598948 -0.836785 -2.014481 1.506891 3.003546 4.237563 0.481561 -5.268965 -1.109329 2135 2027 
3.059692 5.032210 5.608330 -0.025068 -11.347009 -4.848116 -0.701259 3.221219 -0.987461 -0.420055 5.418633 5.769373 4.803143 -1.600289 -11.473283 -1.510061 2136 2028 
1.889981 4.348063 5.623009 0.538046 -8.499693 -4.088079 -1.295326 1.483999 -0.708487 1.206729 7.941977 7.412599 4.509254 -1.414626 -15.669944 -3.277502 2137 2029 
0.951658 2.869643 3.911310 1.612363 -4.380364 -3.572659 -1.120488 -0.271463 2.232754 2.878047 7.541795 6.701431 1.629328 0.161352 -16.893934 -4.250774 2138 2030 
0.025281 2.018228 3.807068 2.291978 -2.167218 -2.953349 -1.233420 -1.788568 3.900625 4.590972 6.838693 4.573054 -1.600089 0.717642 -16.729103 -2.291794 2139 2031 
-0.331823 0.628467 2.485046 0.331840 0.849073 -1.726467 -0.555533 -1.680603 3.981858 4.197043 5.851360 1.433399 -2.098214 0.209949 -13.053696 -0.521700 2140 2032 
-0.698237 -1.833268 1.122179 1.432691 3.448087 -0.894153 -0.344729 -2.232570 4.123746 3.550622 3.339439 -0.889464 -2.706356 -0.224628 -7.971188 0.777828 2141 2033 
-0.951033 -2.336276 0.372789 2.040135 3.455739 0.109586 0.029306 -2.720246 3.445199 3.570810 3.418944 -0.752985 -5.725648 -0.505728 -4.776787 1.326194 2142 2034 
-0.675443 -1.419975 -0.468480 2.153774 2.504549 0.527842 -0.288214 -2.334053 2.958054 3.141476 1.422643 0.456479 -7.598279 -0.047808 -1.349675 1.017110 2143 2035 
-1.357900 -2.318013 -1.284919 1.974045 4.044372 3.063459 -0.508131 -3.612912 2.625234 1.872682 -4.129799 -4.511840 -4.865742 1.701824 4.168148 3.139493 2144 2036 
-0.939279 -3.365384 -2.396044 -1.172321 6.027709 3.886079 0.006277 -2.047038 2.108015 0.146781 -7.291844 -10.576013 -0.991133 2.254721 9.665092 4.684380 2145 2037 
-1.118810 -2.896891 -2.927041 -0.837433 6.594529 3.108887 -0.526135 -1.397105 1.014985 -1.097433 -7.961120 -8.713426 0.876840 1.953744 11.585095 2.341314 2146 2038 
-2.270042 -2.666808 -3.292100 2.172312 6.075856 4.326926 -1.707216 -2.638927 -1.462862 -2.105868 -6.933952 -5.517155 0.875229 1.220051 13.068073 0.856483 2147 2039 
-3.089819 -4.073754 -5.392805 0.091154 8.732908 5.834751 -1.112858 -0.989576 -3.161132 -2.401281 -6.866179 -4.682294 -0.369787 -0.471278 15.371000 2.580950 2148 2040 
-3.240958 -5.793727 -6.464943 -1.516329 12.611991 7.285278 -0.036875 -2.844438 -5.020005 -3.223910 -6.809722 -3.093143 0.023477 -1.656147 16.775280 3.004171 2149 2041 
-2.221791 -4.172518 -6.239668 -2.554824 11.238744 5.088794 0.083227 -1.221964 -5.317097 -3.534948 -5.259496 0.741928 0.684834 -1.083983 13.616734 0.152028 2150 2042 
-1.525492 -2.226906 -4.715022 -1.256958 7.672812 2.271923 -0.391931 0.171572 -3.681297 -2.992837 -2.151414 3.101015 -0.449457 -1.045200 8.267764 -1.048574 2151 2043 
-0.874507 -1.194812 -2.532099 0.703950 4.562871 1.279059 -0.364732 -1.579731 -2.563366 -3.895540 -0.726875 1.556275 0.787707 -0.520636 6.216528 -0.854094 2152 2044 
0.984072 0.534487 -0.364256 -1.073518 -0.172796 -1.684376 0.521834 1.254553 -0.997930 -4.073127 -5.009680 -6.663403 5.522430 2.994910 6.003691 2.223110 2153 2045 
3.740149 3.181895 3.568802 -0.293933 -8.419157 -4.798509 0.433502 2.587252 -0.715720 -3.916662 -7.223634 -9.755541 9.603975 5.014183 3.367223 3.626176 2154 2046 
5.660525 6.017143 6.372943 -0.351632 -14.587795 -6.800973 0.380609 3.309180 -0.367804 -3.471861 -1.277987 -1.413314 7.209884 3.579147 -3.629100 -0.628964 2155 2047 
5.457667 4.691871 6.885107 -2.629391 -14.260538 -6.457927 1.775253 4.537957 -0.173462 -1.102566 5.005311 4.788491 3.139082 1.559772 -10.330467 -2.886161 2156 2048 
4.340471 2.191950 4.438562 -5.017148 -10.639524 -3.288311 3.321711 4.652290 -0.049965 -1.154291 7.639805 9.170602 2.197990 1.075793 -13.678221 -5.201714 2157 2049 
3.380987 1.960443 2.431577 -4.018830 -6.713836 -1.612805 1.956982 2.615483 1.764428 0.687595 6.330512 6.344775 0.983663 1.982892 -14.886422 -3.207443 2158 2050 
0.632342 1.150001 1.117350 0.694232 -2.485540 -1.634566 -0.126971 0.653152 4.566571 4.247369 4.790643 2.139768 -2.909202 2.317517 -15.448744 0.296076 2159 2051 
-2.936842 -1.609120 -0.752505 3.232254 5.000733 -0.434053 -1.203402 -1.297064 4.843368 4.261497 3.381711 0.993651 -2.651547 2.132926 -12.429613 -0.531992 2160 2052 
-3.194210 -2.872697 -0.119338 3.646478 8.360890 -0.863246 -1.631496 -3.326381 1.651800 3.173433 -0.398666 1.071366 3.159677 1.075580 -8.037709 -1.695481 2161 2053 
-2.110654 -1.814629 0.831677 3.198649 4.943573 -1.586779 -1.180736 -2.281101 -0.033718 2.450115 0.755521 5.974072 2.185027 -1.750620 -6.598070 -2.982327 2162 2054 
-1.888598 -0.647340 0.493682 2.194136 2.078984 -0.685073 -0.619425 -0.926366 1.138249 4.435858 4.378426 6.516934 -3.349109 -5.781560 -5.535485 -1.803313 2163 2055 
0.257658 -0.243410 -0.426023 0.173292 -0.942040 -0.539143 0.136557 1.583110 2.164536 4.585617 5.554183 6.016399 -6.050590 -7.547154 -3.697026 -1.025963 2164 2056 
1.126000 -0.851112 -1.198463 -2.146746 -1.446097 1.405332 0.559903 2.551182 0.532011 1.535014 4.551505 4.615566 -5.198055 -5.364176 0.252141 -0.924004 2165 2057 
0.280058 -0.091349 -0.802213 -2.628916 -2.438796 3.589539 0.809535 1.282142 -1.235210 -3.082211 -1.401964 -5.032184 2.683881 -0.053199 6.159693 1.961195 2166 2058 
0.781539 1.683327 -0.146203 -2.426087 -6.043729 3.272562 0.507350 2.371241 -3.405513 -7.045502 -4.339283 -6.565099 10.124390 1.894075 8.495012 0.841920 2167 2059 
0.918934 1.569423 -0.712178 -3.689686 -5.516765 3.550905 1.327560 2.551806 -5.057063 -5.600021 -0.342736 2.469876 7.492688 -3.591689 6.234881 -1.605938 2168 2060 
0.021136 -0.146958 -0.719347 -2.291854 -2.435541 4.356383 1.447269 -0.231087 -5.126733 -4.721998 -0.675358 2.422415 6.095935 -5.152295 7.233148 -0.075113 2169 2061 
-0.156890 -0.367570 -0.723516 -1.631866 -1.937909 4.676419 1.299776 -1.158446 -4.126529 -4.910388 -3.331510 -2.098447 5.550616 -2.247725 8.765862 2.398121 2170 2062 
0.975789 -0.421084 -2.683935 -5.241938 -2.291684 4.296172 3.411715 1.954964 -0.553641 -2.211405 -2.742552 -4.318272 0.395232 -0.538468 6.413416 3.555691 2171 2063 
1.071781 -1.302171 -2.392286 -3.720799 0.575410 1.764294 2.736622 1.267149 0.503576 0.355486 -1.401127 -4.112085 -3.618939 0.431451 5.156915 2.684723 2172 2064 
-2.502891 -3.382302 -0.938311 1.180468 8.392905 1.890469 -0.479586 -4.160751 0.436814 1.067656 -0.983384 -1.958232 -5.543704 0.891830 3.320371 2.768648 2173 2065 
-6.322371 -4.837779 -3.775496 4.343386 13.371605 3.454948 -1.905190 -4.329104 1.500194 1.413158 -3.565449 -3.590985 -4.139324 2.619698 1.631063 4.131647 2174 2066 
-7.220532 -2.102824 -6.230639 7.767852 12.263681 1.408065 -2.149696 -3.735909 2.765278 2.377811 -4.321261 -5.541646 -3.349394 4.186676 -0.362880 4.245416 2175 2067 
-5.286410 -0.160095 -2.638651 8.942031 9.045010 -2.632133 -2.544490 -4.725261 3.947518 3.905174 -0.283163 -4.801913 -6.107973 4.032294 -3.285569 2.593632 2176 2068 
-2.278608 0.098789 2.458173 6.786915 5.822022 -6.390866 -2.264506 -4.231919 3.498199 5.849906 2.311526 -2.360624 -8.588046 3.631459 -6.197887 1.855468 2177 2069 
-1.389289 0.193344 3.225425 3.515242 5.702707 -6.748491 -0.951716 -3.547221 2.664911 5.189620 2.014636 1.045356 -5.633351 3.978387 -8.429272 -0.830289 2178 2070 
0.686151 0.776032 1.077423 -0.664229 1.891205 -4.660843 0.111223 0.783037 2.346494 3.512048 2.102502 1.618836 -0.010418 3.052227 -8.783059 -3.838629 2179 2071 
2.709726 2.221250 0.864021 -1.815469 -2.663763 -3.836655 0.101502 2.419388 1.677171 2.785606 3.063627 2.293503 1.834727 1.010226 -8.289069 -4.375792 2180 2072 
2.203655 2.509675 3.962064 2.318149 -5.722839 -5.121296 -1.343289 1.193881 -0.028627 1.476634 4.532739 6.573653 -0.476580 -1.554184 -5.516906 -5.006729 2181 2073 
1.934892 2.154755 5.156540 4.329207 -6.974090 -4.446055 -2.926682 0.771433 -1.851339 -0.143057 4.682512 9.207968 0.365258 -2.218839 -4.270895 -5.771607 2182 2074 
2.392573 1.887962 3.470633 1.173554 -4.980878 -1.956618 -2.075744 0.088518 -2.356738 -1.179189 3.169345 9.033504 1.098938 0.241939 -3.890052 -6.117745 2183 2075 
2.173823 0.974031 1.112219 -3.101612 -2.957964 0.189124 0.141743 1.468637 -0.977753 -0.270995 3.384460 7.619111 -3.291283 0.481117 -2.573020 -4.371639 2184 2076 
2.909087 -0.348760 -0.292266 -6.642150 -1.120780 1.565430 1.871717 2.057721 -1.024467 -0.805595 4.102732 4.658274 -3.133155 -0.407557 0.136987 -3.527220 2185 2077 
4.075412 0.333723 0.861798 -7.410706 -3.377680 0.936451 2.217947 2.363055 -0.965825 -1.022634 2.880640 1.629620 -3.538106 -0.675296 3.506652 -1.815051 2186 2078 
3.414656 1.597693 -0.248710 -4.881320 -4.923026 0.170210 2.137177 2.733321 -0.741748 -0.670331 1.491735 0.192547 -4.518850 -2.016814 5.660619 0.602843 2187 2079 
1.868596 -1.791769 -4.288958 -7.212495 0.096345 4.449745 4.245512 2.633024 -1.091270 -1.729167 0.251247 -2.098989 -2.255113 -1.904148 7.149547 1.677893 2188 2080 
0.464375 -3.773755 -4.735239 -7.902279 2.904649 6.497513 4.541749 2.002986 -1.683502 -1.727800 -0.625429 -3.714625 -1.172453 -2.354026 8.068770 3.209066 2189 2081 
0.381034 -0.795889 -1.412743 -1.369528 -0.904363 2.316155 1.732697 0.052637 -2.202940 -1.776848 -2.093055 -3.270124 0.962024 -2.164441 7.637711 2.907674 2190 2082 
-0.414636 1.240067 -0.293109 2.221147 -3.659425 0.474799 0.447504 -0.016346 -0.609193 -1.199293 -6.663314 -5.986608 3.591340 0.454665 7.196875 3.215527 2191 2083 
-0.724554 3.064775 -0.251183 3.355387 -5.003434 -1.294737 -0.468954 1.322700 0.625936 -1.613761 -10.568933 -8.153180 5.466434 1.914506 7.557201 4.771798 2192 2084 
0.214429 3.326570 1.385547 4.305577 -6.771877 -1.840095 -1.614802 0.994650 0.529326 -1.266441 -7.113919 -4.244548 3.145709 0.605500 4.594099 3.750274 2193 2085 
0.970811 3.146653 3.401603 3.988443 -8.504836 -1.261066 -1.460569 -0.281039 0.656877 -0.947558 -5.041706 -2.563385 1.160127 0.066982 3.842847 2.825814 2194 2086 
2.121697 2.208894 4.464684 -0.975752 -7.351535 -1.763671 0.381824 0.913861 2.952336 -1.206389 -8.456499 -6.360069 3.460808 2.893592 3.879526 2.836694 2195 2087 
2.869056 1.661240 2.643678 -6.358493 -4.994476 -1.358512 2.219967 3.317538 3.000721 0.000345 -5.368160 -5.383796 1.101959 3.335764 1.586367 1.726800 2196 2088 
2.074977 1.806510 0.340840 -6.035080 -3.765251 0.642442 1.910927 3.024636 2.556165 1.988800 0.632632 -2.301173 -3.768337 0.823229 -2.557737 2.626421 2197 2089 
0.971101 1.111339 -0.503099 -3.528024 -2.101337 0.310491 1.458230 2.281297 4.151860 3.007830 1.794967 -2.269531 -4.896829 0.861955 -4.675389 2.025136 2198 2090 
0.122765 1.423403 0.402848 -0.693609 0.031443 -1.559530 0.016044 0.256635 4.622097 3.240530 1.534319 -4.311331 -6.710741 2.441602 -2.843417 2.026940 2199 2091 
-0.612092 1.022056 1.940136 1.325488 1.669539 -1.689971 -1.665745 -1.989410 4.580912 3.507095 -0.095261 -5.915504 -7.182362 2.949795 -1.732717 3.888043 2200 2092 
-0.908839 0.299220 1.957411 1.889083 1.953042 -1.059670 -2.307694 -1.822554 2.357480 0.854616 -4.942131 -5.245363 -1.904163 3.769974 2.708499 2.401087 2201 2093 
-1.273871 -0.402488 1.149409 2.221750 2.228048 0.638902 -3.374187 -1.187564 -1.438148 -1.980056 -5.838022 -0.003285 4.905306 1.732162 2.860925 -0.238882 2202 2094 
-1.206408 0.127136 -0.362010 2.470993 2.471836 1.400902 -3.312552 -1.589897 -5.754215 -4.986201 -1.989749 5.623156 12.400771 1.738085 -2.218656 -4.813192 2203 2095 
-1.035738 -0.890916 -1.803194 1.511495 3.953155 1.670370 -1.859562 -1.545609 -6.808851 -3.667144 4.575362 7.776719 13.041244 -2.048949 -5.459424 -7.408958 2204 2096 
-0.780988 -2.683692 -2.102735 1.539163 3.857651 2.059797 -0.897008 -0.992188 -4.412137 -0.013213 14.236421 15.564957 3.154622 -11.470444 -8.672905 -8.387302 2205 2097 
-0.485630 -2.699083 -2.259463 2.266044 3.038879 2.902994 -1.394436 -1.369305 -1.768677 2.291391 17.314751 18.578388 -3.433737 -13.286115 -11.233531 -8.462470 2206 2098 
-1.100070 -2.098585 -1.385937 2.495652 3.963851 1.885191 -1.900457 -1.859644 0.254760 2.710195 11.895374 11.257248 -3.648389 -8.954337 -8.478450 -5.036401 2207 2099 
-1.674927 -1.972120 0.011768 3.708572 4.201894 0.276475 -2.554883 -1.996778 0.811194 1.722537 3.993437 2.959379 -3.529540 -2.026801 -3.566921 -0.363285 2208 2100 
-0.538557 -0.454297 -0.606027 2.498485 2.804813 -1.343542 -2.005060 -0.355815 1.204026 1.220951 -2.116499 -3.069977 -1.426771 2.142696 -0.101805 2.147379 2209 2101 
-0.107399 1.153743 -0.926949 1.879968 1.356944 -2.171283 -0.589125 -0.595900 0.341168 -1.422224 -7.194697 -7.554043 5.727304 4.810454 2.818372 2.473666 2210 2102 
-0.617837 1.059036 0.321244 3.157226 0.999393 -1.863876 -0.756126 -2.299060 -1.737836 -1.194520 -4.363795 -2.878501 6.483431 2.088370 0.887041 0.715811 2211 2103 
-1.490309 0.873406 0.446471 1.894229 1.474454 -1.306916 0.383503 -2.274839 -3.429927 -0.045165 4.364079 6.194247 1.401784 -3.651960 -2.491082 -2.341975 2212 2104 
-1.514941 -0.621370 -0.521655 -0.376222 0.732589 -0.059179 2.558170 -0.197392 -5.020110 -0.927605 6.627917 9.316967 3.510588 -5.627595 -3.527552 -4.352609 2213 2105 
1.882247 0.810071 1.595015 -1.100343 -6.846005 -0.982121 2.917743 1.723393 -5.609349 -3.146621 1.545765 3.353703 8.831050 -3.420619 1.295077 -2.849006 2214 2106 
4.840365 3.504563 3.590518 -3.715563 -14.901669 -1.203184 4.058007 3.826963 -3.515877 -4.141823 -7.676491 -8.262836 12.260306 2.270043 6.661406 2.405273 2215 2107 
4.739676 3.981432 1.841217 -6.057676 -13.800136 -0.157804 4.796899 4.656391 -2.917632 -4.257845 -7.724627 -6.837706 9.049530 3.163183 7.327865 2.197231 2216 2108 
2.701988 3.020493 -0.097277 -2.904230 -9.700457 1.845538 2.537000 2.596945 -2.878209 -4.097485 -2.471876 -2.886284 2.814720 1.371606 7.180698 0.966830 2217 2109 
1.049224 1.393390 -1.032926 -0.827535 -5.761164 2.506508 0.785996 1.886507 -0.994187 -4.379171 -3.106688 -3.971023 1.939452 1.869085 7.988681 0.653850 2218 2110 
-0.466843 -0.258984 -0.179184 1.183149 1.283972 -0.415086 -1.083519 -0.063505 0.468284 -4.028287 -5.320509 -6.204246 0.679776 3.876318 9.859089 0.669575 2219 2111 
-3.831170 -1.961963 -0.003262 4.970555 8.212435 -1.991274 -3.168768 -2.226554 1.481560 -1.334290 -3.226709 -5.659071 -2.302681 3.166606 6.472304 1.402282 2220 2112 
-7.017697 -4.682112 -2.461144 7.562662 13.294257 1.998401 -4.533349 -4.161017 3.427661 0.427374 -2.097905 -6.196183 -4.029205 2.573868 2.854682 3.039708 2221 2113 
-6.907922 -5.592016 -1.305667 9.250770 14.408635 1.569748 -5.293322 -6.130226 7.053906 2.345440 -6.236932 -12.122440 -6.334874 5.054387 4.379174 5.861338 2222 2114 
-4.585873 -5.079894 3.721644 7.948165 11.472327 -1.966026 -4.494331 -7.016012 8.160841 4.495195 -5.250808 -12.365434 -8.998930 5.878432 2.362935 5.717769 2223 2115 
-2.227059 -5.113758 3.364418 3.459224 7.577867 0.021729 -2.376135 -4.706286 7.766230 5.622595 -1.915502 -8.584255 -9.351252 6.143842 -3.700052 4.018393 2224 2116 
0.066185 -4.077913 -3.184746 -3.231864 7.226203 3.139389 1.627138 -1.564392 6.144996 5.526748 0.613291 -2.960543 -8.601252 5.880426 -7.514863 0.911198 2225 2117 
1.571911 -7.334327 -11.904335 -14.382856 13.796243 9.310669 7.518786 1.423909 4.573966 8.237415 5.440649 2.736272 -10.748775 1.719605 -12.234502 0.275371 2226 2118 
1.590563 -8.443081 -12.416703 -16.168478 15.018533 9.841585 8.479307 2.098273 4.237419 8.621077 7.292104 7.006721 -10.540725 -0.855919 -15.281768 -0.478910 2227 2119 
-0.824236 -3.953506 -2.228627 -1.123269 5.849491 3.235934 1.160927 -2.116714 3.112875 5.871844 6.275004 7.044053 -6.950307 -0.919920 -13.806890 -0.626659 2228 2120 
-2.404318 -1.790378 1.099974 4.992532 2.222141 -1.069019 -2.438265 -0.612667 3.055393 4.403979 5.581969 6.755164 -4.970397 -1.569618 -11.883852 -1.372639 2229 2121 
-4.311564 -1.692999 -1.450346 4.463050 6.749081 -1.840751 -1.685190 -0.231281 1.302577 2.478071 6.239416 6.341439 -4.598743 -1.776665 -8.869798 -1.116297 2230 2122 
-5.959452 0.215917 -1.263315 7.300768 5.556910 -4.223094 -2.064648 0.436914 -0.757868 1.560143 5.992548 4.361423 -3.528881 -2.216703 -5.445888 0.035224 2231 2123 
-3.275333 3.382697 0.031149 5.309428 -0.124825 -6.436926 -1.468118 2.581928 -1.797913 0.140923 5.440463 5.815792 -2.179092 -2.491861 -3.103955 -1.824358 2232 2124 
-0.256328 4.782373 2.043146 2.375068 -3.947928 -5.537475 -1.238508 1.779651 -3.860707 -1.510716 4.908495 4.625799 -0.765263 -3.521257 0.531708 -0.408060 2233 2125 
2.539103 4.574964 2.211187 -3.207824 -5.438701 -5.302009 0.376629 4.246651 -4.641266 -2.447528 2.900832 3.500026 0.603771 -3.765130 4.901269 -1.051973 2234 2126 
3.520006 3.352265 3.478876 -5.635460 -5.933014 -2.414356 1.506861 2.124822 -5.677778 -3.769974 2.533057 4.826194 1.591146 -4.204920 7.169538 -2.467263 2235 2127 
2.904190 4.184526 4.562477 -4.132035 -8.973951 -1.830688 1.121843 2.163638 -7.019388 -5.717262 1.024499 4.519860 4.707067 -4.990985 9.196695 -1.720486 2236 2128 
2.490103 4.745300 3.177766 -4.810980 -9.845906 -1.792064 1.837753 4.198028 -6.547918 -5.994963 -1.645444 3.270504 7.199463 -3.693599 10.668406 -3.256450 2237 2129 
2.096221 3.938450 2.518367 -2.905256 -9.567345 -0.354756 2.142218 2.132101 -5.384397 -5.622330 -5.233901 -1.480230 7.990471 -1.248157 13.030778 -2.052235 2238 2130 
2.520604 3.284264 2.241058 -0.855986 -9.681795 1.027858 1.195120 0.268877 -2.743509 -5.105613 -9.328678 -6.869923 8.026043 1.755699 13.260649 1.005333 2239 2131 
3.720140 1.923174 2.815857 -1.934364 -9.652841 1.920058 0.605207 0.602769 -0.011916 -2.939097 -7.554786 -5.518637 4.843946 1.748484 8.960596 0.471409 2240 2132 
3.858153 0.982847 2.603191 -3.530110 -8.886414 2.204783 0.991153 1.776397 0.978502 -0.864165 -0.190497 0.040880 -2.315771 -0.921322 3.711323 -0.438949 2241 2133 
3.420489 0.411781 1.338527 -3.411601 -6.952885 3.962671 0.887088 0.343931 2.658172 1.204077 3.122607 -0.814881 -7.401928 -0.967857 1.460057 0.739755 2242 2134 
3.937069 0.691240 -0.764880 -3.390949 -6.399903 1.737023 1.669321 2.521079 5.360884 3.240471 0.295230 -4.478493 -7.808859 1.403391 -0.107934 2.095309 2243 2135 
1.939794 0.649483 -0.865254 -1.174408 -3.818493 1.110191 0.925971 1.232716 4.721294 3.576198 -0.241035 -2.113405 -5.452849 2.457951 -4.093789 1.145635 2244 2136 
0.043298 1.741674 2.266406 3.252182 -3.163312 0.539752 -2.479684 -2.200317 2.715921 2.778122 -0.164686 0.067877 -1.446233 2.736580 -6.943713 0.256132 2245 2137 
-0.009822 1.581710 4.222895 6.224323 -3.345965 -1.464933 -5.068653 -2.139555 2.600372 3.382492 0.347960 3.245829 0.024476 1.703173 -10.750156 -0.554145 2246 2138 
-0.470272 0.068683 3.397181 6.938573 -0.555947 -1.364266 -5.148851 -2.865101 1.291355 2.958485 1.509831 6.289687 0.254568 0.209822 -10.864427 -1.649321 2247 2139 
-0.283651 -0.735751 0.679218 4.273405 3.350924 -0.832242 -3.115216 -3.336686 0.683534 1.923305 0.000392 1.812186 2.457845 0.995037 -8.186832 0.314533 2248 2140 
0.811384 -1.326296 -2.288712 -0.880202 4.986480 0.133439 -0.397695 -1.038398 0.235390 1.490845 -1.951591 -2.687982 5.175758 1.563950 -6.282781 2.456411 2249 2141 
0.955593 0.347857 -3.048732 -3.027074 3.002958 -0.539501 1.128568 1.180331 -0.270959 0.318476 -2.489813 -2.792035 4.224011 1.148371 -2.748333 2.610283 2250 2142 
0.446941 1.166477 -1.811066 -1.446991 1.887613 -1.725771 1.121699 0.361097 -0.079209 -0.060189 -0.339037 -0.542500 2.245680 -0.433806 -1.609191 0.818253 2251 2143 
-0.070827 0.903104 -1.659177 -0.854314 1.697995 -1.939825 0.640892 1.282153 -0.837254 -1.541230 -0.444157 1.276001 3.074207 -0.129168 -0.066455 -1.331944 2252 2144 
-0.155400 1.794281 -0.677422 -0.507383 -0.462040 -1.073102 0.261868 0.819199 -1.692742 -2.352251 -2.490143 0.129595 2.923395 0.003039 3.358450 0.120658 2253 2145 
0.890314 2.362738 0.028168 -0.878583 -2.105898 -1.925391 0.585163 1.043489 -3.107707 -1.819943 -0.089279 2.429624 1.950648 -3.421026 4.878118 -0.820435 2254 2146 
0.806090 2.611480 -0.079081 -0.420869 -1.284405 -2.774708 -0.067711 1.209204 -4.362729 -2.503763 2.833973 7.227722 2.094053 -5.719250 4.826899 -4.396906 2255 2147 
-0.313943 2.005600 0.131086 0.992701 -0.580119 -1.413350 -0.103705 -0.718270 -5.412938 -4.312068 0.022560 5.594137 5.587798 -4.244990 6.326649 -3.561148 2256 2148 
-0.537336 0.103024 -1.017510 1.087949 0.510509 0.992033 -0.320759 -0.817911 -4.505935 -5.648270 -3.616183 1.572803 8.682813 -1.377262 8.220019 -3.327984 2257 2149 
-0.653101 -0.339476 -1.885232 0.321359 0.917140 0.704623 -0.053979 0.988666 -3.190365 -5.058289 -3.031188 0.781239 6.550981 -1.614254 7.283677 -1.721800 2258 2150 
-1.509207 -1.766067 -0.064587 1.281287 1.058619 0.784680 0.100053 0.115223 -2.256155 -3.056577 -1.087441 1.977800 2.909561 -1.229113 3.993771 -1.251848 2259 2151 
-0.058100 -2.309654 1.563856 0.680801 -0.911858 1.769357 -0.281495 -0.452907 -0.716343 -1.354004 0.394743 0.526561 1.226345 0.254863 1.306220 -1.638385 2260 2152 
2.128994 -0.436514 1.685028 -2.237388 -4.181954 0.601106 0.525119 1.915610 0.444215 -0.401626 0.798769 -5.276292 -0.351163 1.304480 1.481832 1.999784 2261 2153 
2.490839 0.773552 1.771316 -2.841895 -6.592261 1.847280 0.567808 1.983361 3.494318 2.666269 2.468488 -6.554326 -7.238463 2.251778 -0.214095 3.126030 2262 2154 
3.234345 2.931885 1.187965 -4.316327 -8.815619 0.395893 1.099152 4.282706 5.657151 4.380526 4.061502 -2.059576 -13.518110 2.089503 -1.783823 1.172826 2263 2155 
3.401022 3.829972 2.658605 -3.736188 -9.125483 -0.475384 0.203017 3.244439 5.639178 3.478122 1.729481 -4.266608 -10.801688 3.844714 -2.015639 2.392441 2264 2156 
2.347247 3.007147 2.697533 -2.652500 -7.725814 0.089211 -0.171907 2.409084 5.712590 3.534465 -3.307486 -10.892275 -3.267604 6.419913 -3.377574 5.177971 2265 2157 
-0.999485 -0.664124 0.482676 -1.167177 0.555195 0.995033 0.138260 0.659620 5.012627 3.049983 -4.758127 -8.118815 0.526930 6.360595 -4.264640 2.191447 2266 2158 
-5.576470 -7.658461 -4.495611 -1.469179 15.402233 6.772259 1.748353 -4.723124 1.703065 1.724114 -2.100472 -0.985331 3.166649 3.339297 -6.961614 0.114292 2267 2159 
-5.575228 -9.916952 -7.460502 -2.117180 18.573405 7.047745 3.633778 -4.185066 -1.638502 -0.244477 -1.528692 2.862887 9.061417 0.883210 -7.187940 -2.207903 2268 2160 
-4.346342 -6.928763 -3.398384 5.893151 10.724286 1.492329 1.133149 -4.569426 -1.347000 -1.015731 0.088162 3.648810 8.576336 -2.093863 -4.847221 -3.009492 2269 2161 
-5.674871 -5.724850 -3.315088 9.410559 11.871608 -0.495239 -0.832749 -5.239370 -0.768544 -0.526802 2.746749 3.692102 3.948862 -4.606192 -2.875056 -1.611119 2270 2162 
-7.736092 -7.074307 -7.418284 5.780169 20.625856 2.406921 -0.542751 -6.041512 -0.480188 -0.654719 1.945842 2.954431 1.051014 -2.996178 -0.595547 -1.224654 2271 2163 
-9.311749 -6.668319 -6.764718 9.155773 21.886201 1.841115 -2.483286 -7.655018 0.580336 1.090966 0.095127 0.076062 -3.014590 -1.899492 0.372506 2.699085 2272 2164 
-8.525446 -3.634809 -1.277455 14.181414 14.601307 -1.833050 -5.005507 -8.506454 0.179133 1.445268 -1.075519 -1.792307 -4.459176 -0.364807 2.550097 3.517311 2273 2165 
-6.066452 -2.100146 0.438336 10.205664 8.463258 -2.509714 -2.582464 -5.848482 -0.121970 0.587478 -0.580807 -1.382107 -6.359589 0.786902 4.532478 2.537615 2274 2166 
-2.694124 0.075696 2.337768 6.210779 1.375845 -4.112233 -1.326491 -1.867241 -0.522569 1.654011 1.394433 -0.341645 -9.304071 -0.360051 5.086880 2.393012 2275 2167 
-0.618969 2.107502 3.167868 3.830857 -2.299456 -4.846633 -1.162444 -0.178726 -1.226073 0.675303 -0.133909 -2.458182 -6.348054 1.027597 6.558419 1.904899 2276 2168 
1.012909 1.055456 -0.709470 -2.838792 -0.469818 -2.788957 2.174853 2.563820 -2.388810 -1.542577 -2.043770 -3.685912 1.262477 1.944001 6.217348 0.237243 2277 2169 
2.560227 0.753888 -1.474879 -8.523802 0.276614 -0.453472 3.986858 2.874568 -2.275701 -2.019129 -1.816155 -3.242736 6.037625 1.175262 3.353734 -1.212900 2278 2170 
3.151934 0.998518 0.520631 -7.985081 -2.162262 0.240380 2.512579 2.723301 -0.053700 -2.075577 -4.397949 -4.973571 6.344628 2.169787 2.332066 0.654316 2279 2171 
3.343476 1.635607 3.593680 -5.238259 -6.305574 -0.357445 0.671539 2.656975 -0.152736 -1.505691 -4.892424 -2.895014 5.992370 1.796051 1.365480 0.291964 2280 2172 
3.208505 1.816846 4.829551 -3.229515 -7.079183 -1.333742 -0.184477 1.972015 -2.921178 -3.029862 -2.899468 2.017942 11.094462 0.213613 -1.657748 -2.817760 2281 2173 
3.464541 1.364377 2.600073 -2.684451 -5.617990 -0.343583 -0.490517 1.707550 -7.257873 -4.987479 -1.272044 6.669498 18.271705 -1.122699 -5.320534 -4.980573 2282 2174 
3.354976 1.047333 -2.896195 -7.094900 -2.223691 2.026705 1.908579 3.877194 -6.989844 -2.653468 3.549402 12.798521 13.510743 -4.612912 -8.703570 -6.898872 2283 2175 
3.471990 -0.194855 -4.093234 -7.924289 -0.064913 3.106224 2.121442 3.577636 -2.356039 0.180143 7.338656 13.142122 3.105453 -6.884710 -8.903281 -5.622344 2284 2176 
2.797835 0.239050 0.618736 -3.262782 -2.473896 1.468131 -0.699878 1.312804 1.515525 2.399021 7.634986 10.797365 -4.699533 -6.802967 -7.958642 -2.885755 2285 2177 
2.320196 2.482229 4.664618 0.807743 -7.735139 -2.410806 -2.307671 2.178831 3.689953 2.245340 5.544392 7.811396 -8.260509 -4.169359 -5.636574 -1.224638 2286 2178 
3.118575 4.568639 6.132124 2.671643 -12.373014 -3.462370 -2.453246 1.797649 3.743152 2.446671 1.945138 1.222876 -8.543135 -0.649551 -2.286662 2.121511 2287 2179 
4.022248 4.836592 4.043310 -0.752906 -11.439375 -2.849087 -0.500315 2.639534 3.124699 2.635864 2.537218 0.450477 -8.540775 -0.533252 -2.171687 2.497456 2288 2180 
4.155219 3.894166 2.777661 -3.197713 -9.669763 -1.502953 1.163364 2.380019 1.008199 1.209392 4.907123 0.450014 -5.907926 -1.533818 -1.381631 1.248645 2289 2181 
4.619196 3.611499 3.230248 -2.806279 -12.698721 -0.743240 2.138562 2.648736 -0.000366 0.800954 3.803852 -2.975893 -4.568297 -0.591201 1.784708 1.746243 2290 2182 
5.152356 4.470155 2.728335 -3.040783 -14.550295 -1.234604 2.749465 3.725371 0.366945 -0.429203 1.270580 -3.993551 -3.795379 1.306714 3.508614 1.765280 2291 2183 
3.444303 4.606181 0.314200 -2.784731 -11.670377 -0.141887 2.850322 3.381988 -0.982344 -1.818075 -1.421583 -3.251548 -0.636919 2.025311 4.571148 1.514010 2292 2184 
2.344882 2.734785 -1.412860 -4.110214 -7.235895 1.058947 2.724994 3.895361 -0.884036 -1.833992 -5.086039 -2.621041 -0.341266 2.676824 6.622709 1.466842 2293 2185 
1.877841 1.781860 -1.781405 -3.020958 -3.343019 0.880601 1.142295 2.462785 0.897857 0.278238 -5.751008 -1.978603 -4.442944 1.531868 7.265682 2.198910 2294 2186 
-0.441334 1.521000 -3.078837 -0.474330 1.603007 -0.296869 0.409856 0.757507 0.952996 1.280020 -1.663359 -0.918286 -6.095664 -0.025160 4.961258 1.508195 2295 2187 
-2.392202 1.372077 -2.988671 1.106493 3.791143 -1.404055 0.363152 0.152063 1.192950 -1.460732 -5.536998 -10.357027 1.189688 4.208624 7.956890 2.806606 2296 2188 
-2.468437 0.265546 -3.000463 1.936692 4.081449 -1.145360 -0.099265 0.429837 2.528746 -2.914109 -10.202790 -17.122988 5.113026 7.432223 10.743982 4.421911 2297 2189 
-2.515390 -0.347076 -1.884060 2.436901 4.658738 -1.767649 -0.868278 0.286815 3.100989 -0.193105 -4.827461 -7.461149 -0.681657 3.462170 5.170249 1.429964 2298 2190 
-2.806518 -0.750431 -0.698251 3.192071 4.486089 -1.842573 -0.984577 -0.595810 1.776336 2.134992 0.086485 -1.772358 -3.637035 0.902249 0.477209 0.032121 2299 2191 
-3.004742 -1.635030 -0.732795 1.356358 5.807028 0.269142 -0.802533 -1.257428 1.645389 3.923889 3.085836 -0.111950 -6.003053 0.509211 -3.797824 0.748503 2300 2192 
-2.129646 -1.697147 1.524348 0.987611 5.228568 0.503688 -2.133074 -2.284349 1.997131 4.372964 4.142193 2.415521 -8.101359 0.261358 -5.326790 0.238981 2301 2193 
-1.355511 -2.781087 1.747753 1.623150 4.041416 1.264973 -2.155966 -2.384728 2.588787 4.119798 2.849710 0.717137 -8.452343 1.426526 -3.328179 0.078562 2302 2194 
-2.137520 -3.238272 -0.403812 1.459634 4.863364 2.410196 -1.160723 -1.792867 4.787056 3.622139 -2.060977 -5.787582 -5.728243 3.808223 -0.673535 2.032920 2303 2195 
-2.994827 -4.721963 -1.939560 -0.527876 7.615184 3.317072 0.126240 -0.874271 4.242752 2.397431 -4.782119 -8.010752 -1.008955 5.200894 -0.519931 2.480680 2304 2196 
-3.186500 -5.537447 0.624821 2.774237 7.047489 2.794963 -1.518381 -2.999182 2.712489 0.984829 -2.923025 -3.454553 0.326340 3.300498 -2.180131 1.233551 2305 2197 
-1.812497 -1.982954 5.697461 10.234993 -0.126049 -1.269478 -5.653709 -5.087769 0.440190 -0.903899 -0.840069 -0.818047 2.352356 1.867010 -1.959721 -0.137820 2306 2198 
0.402343 1.162949 5.759948 8.567565 -5.119784 -3.111123 -5.721939 -1.939960 -2.109099 -0.468199 2.657397 1.163077 3.887496 -0.157472 -2.669710 -2.303490 2307 2199 
1.220660 0.721874 2.440616 5.324258 -4.288084 -0.829813 -3.809541 -0.779971 -2.528064 -1.481599 3.618784 3.721215 3.347407 -1.933960 -1.308130 -3.435654 2308 2200 
0.958559 -0.365782 0.998415 4.362488 -2.254484 0.879766 -2.303952 -2.275010 -3.470862 -2.425551 3.291686 6.836138 1.945787 -3.337039 -0.252476 -2.587683 2309 2201 
2.024249 0.029926 -0.100115 0.809061 -3.346831 0.660421 0.288590 -0.365300 -4.057442 -0.945557 3.206043 7.885435 0.712882 -4.493890 0.039554 -2.347025 2310 2202 
2.688852 1.608166 -1.930016 -4.264522 -4.352161 1.804452 2.663774 1.781454 -3.631990 -1.280789 2.358698 6.623266 1.660174 -3.394524 1.109418 -3.444252 2311 2203 
1.960318 0.933384 -3.539922 -9.487633 -1.174806 4.717799 4.724318 1.866543 -3.152272 -2.617021 0.474354 3.776199 3.117206 -1.996384 2.643016 -2.245097 2312 2204 
0.178477 -0.374074 -4.452805 -8.004774 1.196752 5.254521 4.212867 1.989036 -2.013433 -2.152689 0.529643 2.076569 2.866242 -2.498595 1.870828 -0.678565 2313 2205 
-2.060991 0.876055 -2.111694 0.316816 1.368852 1.020245 0.717801 -0.127084 -2.025439 -2.411702 1.198848 2.458387 3.622663 -3.344216 0.624682 -0.123224 2314 2206 
-1.752168 2.498839 -1.691284 1.607362 -0.247856 -1.707367 0.888076 0.404398 -2.362812 -3.047319 0.211252 2.946324 4.438055 -2.244011 1.321503 -1.262992 2315 2207 
0.680946 3.929842 -1.766964 -1.344681 -3.853637 -2.784183 2.373220 2.765457 -1.288619 -0.093195 1.364070 3.782846 2.087320 -4.088470 -1.228041 -0.535911 2316 2208 
2.209598 2.868197 1.102480 -1.759236 -6.602835 -2.996556 2.979182 2.199170 0.050046 1.909967 3.032885 4.733937 -2.475056 -5.093112 -2.717709 0.559042 2317 2209 
2.069523 1.301228 1.932000 -3.816428 -4.472383 -1.003855 3.220138 0.769778 -0.097440 2.346475 3.784014 5.968609 -4.497895 -3.565414 -3.610745 -0.327604 2318 2210 
0.206865 0.268638 -0.045623 -5.370218 2.482091 -0.046178 2.408341 0.096085 0.648956 3.293073 2.748223 5.063455 -2.874563 -2.784902 -5.342817 -0.751425 2319 2211 
-1.394307 -1.186756 -2.503317 -3.659998 6.964810 0.996924 1.515367 -0.732724 1.007037 1.312048 1.670654 2.750427 -0.051428 -1.483893 -4.526218 -0.678628 2320 2212 
-2.297039 -3.730738 -2.715265 -1.497322 13.029286 1.589566 -0.936189 -3.442299 0.625415 0.015940 -0.205853 -2.450635 2.916768 -0.232040 -2.010154 1.340558 2321 2213 
-5.157512 -6.557331 -4.551652 0.753534 20.610888 2.318499 -2.459844 -4.956582 2.910657 0.676980 -2.877292 -7.455917 1.428676 2.936693 -0.083720 2.463922 2322 2214 
-7.321902 -6.943925 -4.322690 8.116708 20.402018 1.579414 -4.322124 -7.187498 3.818380 0.886673 -3.436364 -10.338125 -0.599306 5.672847 0.103037 3.892857 2323 2215 
-7.110876 -6.165207 -0.377980 13.314733 17.143746 -1.798352 -6.374218 -8.631846 3.263834 1.292913 -4.178126 -10.356245 1.389306 5.880009 -0.514237 3.222546 2324 2216 
-5.040828 -5.101382 0.802296 10.938680 14.558238 -3.517756 -5.617198 -7.022051 0.404287 -0.529468 -2.603864 -4.657175 3.730345 4.743498 -1.022854 -0.064769 2325 2217 
-1.579940 -3.050238 1.812221 6.340902 5.576833 -1.432677 -3.299467 -4.367634 -1.640794 -1.204642 -0.360948 -0.738755 3.429385 3.120791 -1.243284 -1.361753 2326 2218 
2.221378 0.403071 4.518128 3.255446 -6.726796 -1.034428 -1.595925 -1.040875 -1.476822 0.494508 1.688649 2.843844 -1.446458 -0.216726 -1.740703 -0.146292 2327 2219 
4.280233 1.346937 4.498830 -0.495425 -10.031128 -1.868527 -0.936893 3.205974 -2.129502 1.184368 3.621521 6.322586 -3.696564 -2.871411 -1.942314 -0.488684 2328 2220 
4.363182 1.259587 1.935697 -4.485033 -9.050445 1.045154 1.226220 3.705638 -3.923914 -0.925413 1.998868 9.111095 0.625872 -2.723272 -0.561321 -3.601916 2329 2221 
4.438410 2.328772 0.849845 -4.970823 -11.156860 1.519211 2.866186 4.125259 -4.986820 -2.078461 3.745631 11.955188 0.673685 -5.216697 0.812967 -4.905494 2330 2222 
4.600415 3.389325 1.843880 -3.099527 -14.885241 -0.781412 2.843454 6.089106 -2.483139 -2.399561 3.049446 6.550047 2.216301 -4.938323 1.850197 -3.844967 2331 2223 
4.206185 3.816283 3.556496 -1.135353 -15.153795 -1.430152 2.384605 3.755730 -1.337683 -3.428896 -2.228844 -1.957848 8.393849 -2.259236 3.219977 -0.401320 2332 2224 
3.990483 2.967452 1.020154 -4.609460 -10.571957 -0.657734 2.686490 5.174573 -0.892895 -4.353799 -5.201840 -4.254878 10.587582 -0.789294 4.778724 0.126401 2333 2225 
3.163163 2.984078 -1.213167 -6.558705 -7.143602 0.628254 2.976424 5.163556 -1.596052 -7.674708 -12.427018 -8.113451 15.095461 4.092774 8.687343 1.935650 2334 2226 
1.172705 3.591139 -0.800894 -4.445773 -4.887544 0.240774 2.745187 2.384405 -1.032674 -7.039940 -14.782833 -10.531377 14.880812 5.582079 8.672541 4.251392 2335 2227 
0.146529 3.688665 -1.135198 -3.826651 -2.393474 -0.910328 1.955418 2.475039 -0.439613 -4.371885 -6.158769 -1.537916 6.557991 2.082524 4.480426 -0.612758 2336 2228 
-1.849492 2.841718 -0.321354 -1.079312 1.796150 -1.826954 -0.249416 0.688659 -1.291540 -0.630785 -1.725155 2.472175 -0.297633 0.227686 1.279964 -0.034712 2337 2229 
-3.320348 2.552525 -0.214312 2.301650 4.658379 -2.312288 -1.736834 -1.928772 0.364955 1.497897 0.442672 1.993247 -4.780791 0.995080 -0.045390 -0.467671 2338 2230 
-2.594020 1.163178 -1.326849 1.599793 5.225607 -1.391658 -1.394706 -1.281344 0.565443 1.753565 6.799801 4.915604 -8.816605 0.030327 -2.252211 -2.995924 2339 2231 
-1.744575 -1.087393 -2.313076 -0.202532 6.760788 -0.594249 0.652388 -1.471350 2.224564 3.750657 8.425380 3.532447 -10.071299 -1.382578 -5.555409 -0.923762 2340 2232 
-1.276695 -1.731996 -2.539680 -0.565587 7.225787 0.596676 0.267677 -1.976180 4.054146 4.054356 8.522443 1.895054 -11.971788 -2.085836 -4.222947 -0.245428 2341 2233 
-0.376266 -1.925753 -1.780299 -1.564406 5.016285 0.837544 -0.319364 0.112259 4.591938 5.060320 5.662880 -2.270860 -12.849802 -0.958329 -2.197336 2.961189 2342 2234 
0.163819 -1.934622 0.319208 0.164982 2.258650 1.101927 -0.293007 -1.780956 5.716876 3.332724 -0.833808 -7.605229 -6.481550 3.565992 -0.854776 3.159771 2343 2235 
0.105128 -1.471178 0.434798 2.248398 -0.178992 1.375044 -1.724130 -0.789070 3.965174 2.067821 -1.049613 -7.127663 -4.280575 4.668133 -0.644827 2.401551 2344 2236 
0.373501 -1.714610 -0.267616 2.117715 -1.104713 2.275931 -1.455797 -0.224412 1.684510 2.532780 -0.676665 -5.886149 -3.748392 3.572190 0.045574 2.476153 2345 2237 
0.299183 -2.918727 -0.321426 1.784044 -0.354164 4.142457 -0.752577 -1.878791 1.217723 1.813504 -0.424116 -4.557021 -1.993563 2.791703 -0.260861 1.412630 2346 2238 
1.286101 -2.042519 -0.024050 -0.241647 -1.505835 2.592018 -0.006481 -0.057588 0.741935 1.181380 0.138786 -2.780752 -1.611530 2.128838 -1.029493 1.230836 2347 2239 
1.384422 -1.764791 2.044804 -1.678385 -1.485587 2.552145 -0.383570 -0.669038 0.470565 1.516247 -1.003751 -3.310416 -1.448229 1.730255 0.429892 1.615437 2348 2240 
1.563205 -1.267533 0.279182 -3.514845 -1.850744 2.398965 0.637142 1.754628 -0.487850 1.152261 -1.327395 -2.389791 -1.958681 0.470806 2.079943 2.460708 2349 2241 
2.810766 0.357207 -1.366016 -5.208150 -3.602673 1.815640 2.303281 2.889946 -1.165895 -0.630506 -1.819210 -0.666732 -1.304217 0.433776 3.663904 1.488881 2350 2242 
3.164551 1.904071 0.101806 -4.916326 -6.845232 0.568319 2.739905 3.282906 -1.305250 0.412752 -1.062925 0.004050 -2.118129 -0.443231 1.957834 2.554898 2351 2243 
3.665004 3.872218 1.477124 -2.946379 -10.298075 -3.687424 2.484480 5.433052 -1.446443 0.535032 0.590940 1.861174 -1.894552 -1.887554 1.105336 1.136067 2352 2244 
2.352369 3.280271 3.035953 1.697628 -8.643270 -3.615036 0.066799 1.825286 -1.940188 -1.491195 2.295264 4.094094 -0.394976 -2.474417 2.024014 -2.112597 2353 2245 
0.158205 3.148328 1.830576 1.805480 -4.783647 -2.207422 -0.499285 0.547765 -3.132471 -2.101692 3.988125 4.343827 0.452268 -3.714520 1.400462 -1.236000 2354 2246 
-0.647038 2.724085 -0.658556 -0.324615 -1.017316 -1.674223 0.178977 1.418686 -2.551840 -0.391721 3.904921 3.180881 1.915644 -3.689447 -1.479599 -0.888839 2355 2247 
-1.193714 1.998313 -2.570293 -1.693967 1.689519 -0.872449 1.516477 1.126114 -1.578986 -1.224435 1.712106 5.749255 2.955234 -3.319526 -1.542887 -2.750762 2356 2248 
-2.113331 2.061100 -1.953233 -0.895214 4.010398 -0.966697 0.683502 -0.826525 -0.559957 -1.632867 -0.486402 4.547815 1.786391 -2.176576 -0.259065 -1.219339 2357 2249 
-3.202649 1.274488 0.711557 4.677859 2.276789 -1.668186 -1.565586 -2.504272 0.170334 -0.749240 -1.219147 1.088185 2.142671 0.115918 -0.501299 -1.047421 2358 2250 
-2.904844 1.520361 1.001895 6.187928 -1.347595 -2.014257 -1.918884 -0.524605 0.321989 -1.300623 -0.526990 1.644696 2.875577 1.519767 -1.650377 -2.884038 2359 2251 
-1.812819 2.583372 2.697447 6.663767 -4.810008 -1.386209 -3.254634 -0.680915 1.050479 1.529531 0.291861 0.290663 2.621069 0.985482 -5.205083 -1.564002 2360 2252 
-0.763277 1.970117 4.915269 5.895262 -8.151601 -0.250481 -2.480251 -1.135039 0.906513 1.468085 0.718807 2.116067 1.074237 0.347110 -4.090485 -2.540334 2361 2253 
1.536297 -0.000919 3.855951 1.164385 -7.681729 0.804839 -0.328261 0.649438 1.473600 1.613346 2.615349 1.909080 -2.971881 -0.985870 -3.044519 -0.609105 2362 2254 
2.513729 -0.303386 3.030448 -1.147166 -5.870493 1.272735 0.393824 0.110310 2.417509 2.839791 3.717095 0.090177 -3.951311 -1.263258 -4.111385 0.261382 2363 2255 
2.600894 -1.018175 -0.058532 -3.589636 -2.840372 1.413118 1.357798 2.134906 2.189020 1.690147 2.617639 0.220811 -2.671250 1.297113 -4.092162 -1.251316 2364 2256 
2.344340 -3.148859 -4.526593 -7.674199 3.499742 3.660358 2.822313 3.022898 2.242932 1.390593 -0.196725 -1.978534 0.421487 2.295633 -3.905807 -0.269578 2365 2257 
-2.175816 -7.171377 -7.012055 -8.510592 16.183345 8.160340 2.129040 -1.602885 1.271031 0.942925 -1.710116 -2.753418 2.678800 2.557706 -2.738731 -0.248198 2366 2258 
-6.363051 -8.052837 -5.720665 -0.526706 20.698806 6.036469 -1.561272 -4.510744 1.077974 1.309981 -1.237269 -3.589355 2.049345 1.252665 -1.670006 0.806666 2367 2259 
-6.460346 -5.961255 -0.998857 5.124663 16.953401 1.709563 -3.403295 -6.963874 1.807888 1.131246 -2.270087 -4.819722 -0.102607 0.412211 1.089758 2.751312 2368 2260 
-5.382397 -5.743209 4.312798 6.666935 15.685896 -2.068432 -4.058260 -9.413331 1.447425 1.642703 -1.620559 -3.744410 -2.567718 -1.267898 2.130439 3.980018 2369 2261 
-4.618779 -5.523091 8.754222 12.285530 10.638540 -5.605879 -5.554793 -10.375751 1.011235 1.136154 -1.440667 -1.475903 -3.402207 -2.128461 2.614496 3.685353 2370 2262 
-3.207965 -4.915124 5.817012 8.525766 6.487897 -3.921754 -2.203432 -6.582400 1.236504 2.146370 -0.866572 -2.010814 -7.368845 -0.835220 4.029101 3.669476 2371 2263 
-0.564699 -2.567644 -1.391746 1.049075 4.976646 -1.556337 2.365002 -2.310298 2.312441 4.013192 1.955169 -0.131151 -12.987158 -0.055762 2.652742 2.240528 2372 2264 
2.180552 -1.280734 -6.513029 -5.640598 4.004133 0.368551 4.556038 2.325087 0.449153 3.054252 3.053271 2.797711 -13.764979 0.579139 1.692987 2.138466 2373 2265 
3.030570 -0.756066 -4.841489 -9.079232 2.331258 1.459134 4.409388 3.446437 -3.864773 0.457553 2.224824 1.608854 -3.845436 0.742481 2.523341 0.153156 2374 2266 
1.667195 -0.397357 -4.179424 -6.194673 1.520066 1.721229 3.210291 2.652673 -5.799896 -6.170691 -5.737111 -3.493328 13.468140 5.338504 5.968700 -3.574318 2375 2267 
0.586544 1.111045 -6.628043 -3.089253 1.746130 -0.091151 2.714033 3.650695 -4.475734 -9.446266 -11.062563 -4.399309 18.337511 5.517208 8.773575 -3.244422 2376 2268 
-1.930825 2.419236 -3.070243 4.190856 1.210422 -1.500929 -1.188006 -0.130510 -2.723746 -5.936709 -4.339402 3.142312 10.278451 -0.381338 3.397458 -3.437026 2377 2269 
-3.730802 2.420251 -1.410618 6.750050 1.734745 -1.846401 -3.326344 -0.590881 -3.001198 -3.885941 -0.786946 6.332394 9.648216 -3.896489 -0.292011 -4.118025 2378 2270 
-3.565158 2.047227 0.504534 7.182589 2.796119 -2.506581 -4.065903 -2.392827 -4.614164 -6.538162 -3.353165 6.424963 19.431778 -3.858227 -0.792380 -6.700643 2379 2271 
-1.778809 0.547965 1.403359 4.359903 3.294518 -1.168233 -3.301218 -3.357485 -6.605734 -6.464992 0.972695 12.280378 23.254974 -6.541532 -7.368711 -9.527077 2380 2272 
1.854139 0.274746 -0.531512 -3.503078 0.665349 0.821894 0.098063 0.320399 -6.458329 -5.184559 5.950024 16.263935 19.608274 -9.566226 -10.102771 -10.510349 2381 2273 
3.102510 0.394993 -1.001979 -6.244503 -2.855104 2.858274 1.033987 2.711822 -4.425558 -3.716111 3.834717 8.827773 14.443773 -5.435440 -7.623313 -5.905841 2382 2274 
3.861753 1.908319 -1.112408 -7.104427 -5.433306 2.472952 1.761091 3.646026 -1.460534 -0.294145 3.846109 5.492040 3.429266 -1.752566 -6.446452 -2.813717 2383 2275 
4.951789 3.014771 0.565894 -6.564634 -8.799580 1.165035 2.241208 3.425517 0.938583 1.380477 3.147719 3.043080 -2.590718 0.261791 -4.358192 -1.822740 2384 2276 
4.698699 2.867293 1.007105 -4.953410 -10.540595 1.056486 1.667550 4.196872 1.672908 2.767735 -1.117678 -5.323269 -2.316805 2.324292 -0.625620 2.618437 2385 2277 
3.789863 2.182955 2.048017 -2.316919 -10.291868 0.528556 0.114485 3.944913 3.385127 1.949565 -4.532654 -8.169735 -2.647198 4.178274 2.564307 3.272313 2386 2278 
3.565020 2.732421 2.523363 -1.309875 -10.836365 -0.144574 -0.143814 3.613825 3.581894 1.384966 -5.081658 -7.581370 -2.514217 3.174026 3.060636 3.975723 2387 2279 
3.430404 3.620268 0.235820 -2.202319 -10.427218 0.956070 1.181794 3.205181 2.392526 1.561645 -2.315280 -6.606889 -4.291833 2.111262 2.688194 4.460375 2388 2280 
1.853302 3.153771 -2.715194 -4.274713 -7.674151 2.726197 1.918897 5.011891 1.531747 1.453186 0.173194 -5.745110 -5.417049 1.275704 2.805992 3.922337 2389 2281 
0.906104 2.448575 -4.293460 -4.979152 -3.403223 2.394560 2.134873 4.791723 0.502946 0.287220 -0.047623 -4.087251 -4.631305 1.347405 3.099179 3.529429 2390 2282 
1.393594 3.033466 -1.588053 -0.636776 -2.295383 -0.967759 -0.122472 1.183383 0.947164 -0.075470 -3.217612 -6.045575 -3.271471 3.041762 3.701967 4.919235 2391 2283 
1.086434 3.897012 2.770234 2.923115 -3.860523 -4.588542 -1.979430 -0.248300 2.236729 0.431768 -5.588606 -6.560001 -2.065800 2.373911 3.728336 5.443662 2392 2284 
-0.606059 2.395635 5.209208 5.037869 -4.063615 -3.993749 -1.916839 -2.062449 1.933799 0.626124 -3.039007 -4.667001 -3.792584 1.521893 2.774099 4.642677 2393 2285 
-1.204391 2.160181 4.115074 4.908148 -5.290374 -3.704763 -0.533305 -0.450570 1.046544 3.474149 2.679768 -0.991918 -9.385016 -1.022255 0.138825 4.059904 2394 2286 
-0.230208 0.952483 3.275136 5.504865 -4.564979 -4.975836 0.150351 -0.111812 2.051855 5.145612 6.186699 2.784197 -13.622102 -1.971759 -3.597172 3.022670 2395 2287 
-0.250053 -0.255224 2.791950 4.283547 -2.666702 -2.964594 0.052050 -0.990973 2.468716 5.154331 5.408359 0.149148 -14.268967 -1.521822 -1.371645 3.981880 2396 2288 
-1.316081 -1.691206 -0.133434 -1.992478 0.918658 0.941418 2.063943 1.209180 2.487591 3.238840 1.770903 -2.727581 -12.478226 0.888020 4.999360 1.821094 2397 2289 
-1.223740 -1.189465 0.398422 -1.046716 1.561975 0.209486 0.968176 0.321862 3.364770 2.812143 0.045389 -5.866293 -11.221704 3.484447 4.787139 2.594109 2398 2290 
-0.126904 0.860042 2.726681 2.269371 -1.503909 -2.061231 -0.840827 -1.323221 4.894746 3.920379 -0.313398 -7.421210 -12.071296 4.201988 3.032200 3.756591 2399 2291 
-0.509598 -0.614583 1.812408 1.973422 -0.150704 -0.269791 -0.680623 -1.560531 5.550311 2.818882 -2.085687 -6.668756 -11.815332 6.435102 4.053997 1.711484 2400 2292 
-0.929255 -1.547723 1.261624 3.255797 0.692681 0.548783 -1.657560 -1.624347 4.127752 2.544289 -2.412132 -4.418331 -10.023202 6.186055 2.094226 1.901343 2401 2293 
-0.684114 -1.924753 2.077994 2.282157 0.877086 1.219507 -1.930015 -1.917863 2.450584 1.961579 -0.227659 0.084012 -7.318271 3.515658 -0.301416 -0.164488 2402 2294 
-1.014197 -1.189406 1.834892 1.546206 0.526252 1.083262 -1.206730 -1.580279 1.330052 1.094722 1.987788 2.193192 -3.956770 0.740617 -1.808884 -1.580717 2403 2295 
-0.668359 -1.304406 1.212373 1.997747 0.703449 0.538996 -0.544473 -1.935327 1.712054 1.094319 3.887871 4.097170 -1.007581 -0.065525 -6.868031 -2.850277 2404 2296 
-0.597103 -0.884853 0.550749 1.696142 0.948178 0.938959 -0.711796 -1.940276 0.794522 -0.116836 4.885476 6.122090 2.755825 -0.121251 -11.452351 -2.867475 2405 2297 
-0.571643 -0.570664 0.573089 1.894536 0.329621 0.274973 -1.031678 -0.898235 0.515136 -0.224928 4.897283 6.228327 6.034382 -0.768330 -15.856101 -0.825768 2406 2298 
0.354804 -1.271155 0.324300 0.461125 0.843317 0.460066 -0.303758 -0.868699 0.254109 0.080942 4.989910 6.389414 9.682910 -0.984142 -19.282693 -1.130451 2407 2299 
-0.054089 -1.225176 -1.192431 0.106144 2.320547 0.716248 0.588708 -1.259951 -1.036606 -1.257575 4.446938 6.762760 11.502950 -2.673970 -15.866918 -1.877580 2408 2300 
-0.252271 -1.703389 -2.510828 -0.913453 3.574102 1.044949 1.254519 -0.493631 -2.221460 -2.011978 3.673838 6.849037 7.816042 -5.045144 -7.175449 -1.884886 2409 2301 
0.847097 -1.686472 -4.782434 -4.047260 4.525228 1.141463 2.415022 1.587355 -4.674372 -2.834185 0.700933 4.925128 4.366842 -5.585352 4.975142 -1.874136 2410 2302 
0.769742 0.006931 -4.566454 -4.333202 4.164778 -0.553928 2.563966 1.948166 -4.716368 -4.398792 -2.188569 0.217040 3.383455 -4.880237 15.179230 -2.595759 2411 2303 
-0.181643 2.050259 -1.582770 -1.709093 1.617526 -2.878241 1.748445 0.935515 -5.154088 -7.286945 -5.723642 -8.432511 6.681447 -2.368267 24.369082 -2.085076 2412 2304 
-1.631692 1.349953 0.531604 0.227794 2.180942 -2.787196 0.475940 -0.347346 -5.674812 -6.172849 -5.169081 -9.008545 4.510829 -3.193397 26.660178 -1.952324 2413 2305 
-1.491226 0.262863 0.870512 1.859087 3.216270 -1.092724 -1.318657 -2.306126 -6.101461 -2.523064 0.765623 1.251786 -5.922103 -9.591745 26.812730 -4.691767 2414 2306 
-0.832904 -1.487585 0.908411 1.577777 2.761815 -0.341087 -0.614341 -1.972085 -6.707828 -2.560591 1.769731 3.561319 -11.436420 -12.100894 34.238083 -6.763401 2415 2307 
-0.864787 -1.202488 1.348924 0.642463 1.503414 -0.938353 -0.262939 -0.226234 -6.305781 -2.173222 0.780831 1.828251 -11.634434 -11.551371 34.954753 -5.899027 2416 2308 
-0.477954 -0.266646 1.209814 1.968823 -0.426106 -0.894459 -0.759014 -0.354459 -6.425224 -4.701757 -1.153996 1.487262 -6.760961 -9.065920 34.445917 -7.825321 2417 2309 
-0.242307 -0.775800 0.465516 0.558486 -1.389945 0.755370 0.728737 -0.100057 -4.758993 -5.394807 -4.501015 -3.482649 -1.818941 -4.383458 30.501547 -6.161683 2418 2310 
-0.487056 0.130327 -1.044072 -0.600437 -1.075382 1.322626 0.956243 0.797751 -1.051926 -2.073029 -7.343425 -6.752916 1.921790 1.262723 16.162197 -2.125414 2419 2311 
-1.607768 -0.275056 -0.817080 1.272910 0.081531 1.217596 -0.458245 0.586111 1.646350 -2.192935 -10.208644 -6.111088 10.460249 8.812588 -0.636780 -1.769740 2420 2312 
-2.091230 -1.644327 -0.021943 3.141966 1.914597 2.408121 -1.711153 -1.996031 1.951498 0.177675 -6.868374 -1.831042 13.561239 11.727105 -20.722758 2.004657 2421 2313 
-1.439151 -3.811283 -0.545080 1.684634 3.616320 4.526589 -1.123132 -2.908897 2.861653 3.668120 1.697315 6.668519 8.043656 9.316661 -35.082025 2.826100 2422 2314 
0.875696 -4.563785 -1.463652 -3.444429 3.926129 4.604796 0.412503 -0.347258 4.567820 6.308842 6.115382 9.270313 4.927196 7.561704 -42.635265 3.884008 2423 2315 
0.476326 -3.827951 -0.071642 -4.027758 4.507277 3.142113 0.296264 -0.494630 7.865123 8.999187 7.058812 8.025709 5.674909 8.330346 -52.554127 6.600042 2424 2316 
-1.254691 -3.160617 1.670202 -0.866193 3.987024 2.557026 -0.865592 -2.067159 10.183084 8.707742 4.828720 6.350526 10.317976 10.254445 -59.963877 9.321383 2425 2317 
0.515893 -1.139079 -0.121043 -2.211821 0.998207 2.194413 -0.149292 -0.087278 10.278611 8.384075 2.382175 3.952887 14.453775 11.397591 -62.668871 11.819756 2426 2318 
1.505553 0.568859 -1.802915 -4.494876 -0.843673 1.838291 1.003671 2.225090 8.933358 6.842127 2.815705 5.857306 15.654863 11.474043 -61.661878 10.084476 2427 2319 
1.744695 0.767937 -2.427846 -3.938440 -0.139210 1.094375 0.805809 2.092679 6.010478 4.484570 3.719020 7.063534 16.283799 9.574163 -56.023638 8.888074 2428 2320 
2.110579 1.091458 -4.046932 -4.619215 -0.110329 1.451565 1.113848 3.009025 3.123312 3.212325 4.631536 6.391996 14.661470 4.885017 -44.576647 7.670992 2429 2321 
2.131325 3.889981 -2.857632 -3.033739 -3.019431 -0.314843 0.843724 2.360615 -1.557086 -0.522231 1.817624 5.261173 13.524050 1.004488 -22.721758 3.193741 2430 2322 
1.402386 5.418835 1.189598 1.402778 -3.866019 -3.864016 -0.559932 -1.123630 -4.992416 -4.342046 -0.549844 4.025870 9.566309 -1.877504 0.949195 -2.779563 2431 2323 
0.308650 3.399175 2.150562 0.685537 -1.858657 -3.744728 -0.829864 -0.110675 -5.898792 -4.114137 1.892986 4.663418 -1.838940 -8.630165 19.300216 -5.374585 2432 2324 
0.637194 2.771947 1.822605 -1.412374 -2.137944 -2.692597 -0.213513 1.224684 -6.004791 -3.402383 1.625954 1.533451 -10.339347 -13.253205 34.837908 -4.997587 2433 2325 
1.253342 2.841632 0.395296 -1.394253 -3.431642 -2.289875 0.487169 2.138330 -5.566238 -4.579846 -3.570772 -5.077217 -14.267153 -12.789121 50.759695 -4.909348 2434 2326 
0.510350 2.732352 1.113978 1.178735 -5.210050 -2.860806 0.064429 2.471013 -5.395775 -4.727338 -5.353314 -9.362487 -23.196411 -13.644632 67.444524 -5.764567 2435 2327 
-1.000806 2.791087 2.967492 2.789481 -3.768132 -2.868152 -1.188687 0.277716 -5.508771 -4.600398 -7.368508 -14.378032 -26.304842 -12.582943 75.848324 -5.104830 2436 2328 
-2.185870 0.524887 -0.252844 1.872562 1.552660 -1.008221 -0.877066 0.373891 -5.784277 -5.051704 -12.065112 -17.768121 -22.890027 -8.848277 78.303616 -5.896097 2437 2329 
-3.935607 -2.028521 -1.731737 3.119550 7.247278 0.293663 -0.964955 -1.999671 -6.011793 -5.027314 -11.878031 -18.825201 -22.120863 -5.990056 75.561674 -5.708416 2438 2330 
-4.071792 -2.747914 -1.183276 4.086570 9.298905 -1.130611 -1.546067 -2.705814 -2.897491 -3.083765 -8.555821 -18.351911 -21.597334 -2.717083 62.060927 -4.857521 2439 2331 
-3.029448 -1.773147 -1.294703 4.695913 4.235111 -1.285544 -0.535950 -1.012231 0.495763 -1.540585 -4.857439 -14.016786 -17.554421 0.772300 41.276369 -4.575201 2440 2332 
-2.045354 -1.293403 -1.115013 3.045522 -0.807569 1.995188 0.497615 -0.276987 1.641573 0.921038 -1.901674 -10.723286 -10.140899 2.174119 17.343771 0.685359 2441 2333 
-0.143210 -2.311180 -0.183611 -0.339043 -0.998910 2.639262 0.522805 0.813886 3.538087 2.918414 0.929066 -5.164778 -3.980335 3.328459 -3.341307 1.772395 2442 2334 
0.551085 -1.319112 1.502598 1.156597 -3.457261 1.325188 -0.098028 0.338933 4.447574 2.101845 3.704409 2.010797 1.519786 4.719206 -18.793630 0.290014 2443 2335 
0.828088 1.910661 4.833274 7.648732 -10.900396 -1.238970 -2.397637 -0.683751 5.503907 3.328122 5.837107 6.110905 6.268142 5.454911 -34.786287 2.283194 2444 2336 
1.560899 2.100920 5.055244 5.968665 -11.088589 -1.654279 -2.008957 0.066096 5.817175 5.074975 10.037784 11.093646 9.789370 5.738442 -52.541987 4.990595 2445 2337 
3.373105 -1.481717 0.589583 -3.056655 -4.558119 1.426493 2.016105 1.691205 5.307063 5.063951 13.607794 15.824351 12.201895 6.954834 -62.934491 3.974603 2446 2338 
2.675747 -4.124678 -1.666060 -6.857714 1.623237 3.100289 3.478322 1.770858 5.142753 4.569125 12.910114 15.933588 14.834983 8.139522 -66.022402 4.492316 2447 2339 
-1.612616 -5.376325 -4.313953 -4.956098 10.012657 4.620122 1.580079 0.046134 5.078978 4.267846 10.257700 14.355164 17.094819 8.068822 -63.870214 4.746885 2448 2340 
-3.121151 -6.107603 -7.103761 -4.223646 16.240478 4.864255 1.265619 -1.814192 3.360720 2.068126 7.273145 12.201724 16.997003 7.624789 -52.710077 3.184570 2449 2341 
-1.944353 -3.299612 -5.093020 -4.925480 13.843118 1.651648 1.349910 -1.582212 1.499192 1.722043 4.601070 7.136519 13.964693 3.927981 -37.966150 5.114651 2450 2342 
-0.707479 2.136633 -0.169239 -1.321914 5.736040 -4.292205 -0.538871 -0.842966 -0.173292 -0.686687 2.188372 6.355809 9.933805 1.194302 -19.110624 0.298315 2451 2343 
0.575527 3.494763 1.017275 0.384191 1.277870 -6.314112 -1.359069 0.923555 -4.258598 -2.556392 0.077321 6.043893 6.699804 -1.903041 -3.068892 -1.034096 2452 2344 
0.236480 1.758612 -1.071278 -0.177844 1.366395 -2.762529 -0.328017 0.978182 -5.421086 -2.444287 -1.978406 1.660887 5.092933 -4.570730 8.904869 -1.244182 2453 2345 
0.304361 2.273093 -1.836407 -0.984858 0.264440 -2.146486 0.672324 1.453533 -5.114671 -5.493287 -5.399142 -2.465826 2.834626 -4.755001 24.462896 -4.069595 2454 2346 
1.294993 3.243141 -0.102116 -0.603665 -2.555043 -3.106258 -0.012047 1.840996 -5.389337 -4.907127 -8.846568 -6.574421 -2.879599 -6.179674 37.915459 -3.138732 2455 2347 
0.546099 3.182549 2.325690 1.155026 -4.963611 -3.207442 0.427968 0.533720 -5.224960 -4.774935 -10.828680 -9.768959 -5.378118 -6.490166 46.848522 -4.382705 2456 2348 
1.564909 3.322136 2.430196 1.581642 -5.832868 -4.067296 -0.461533 1.462814 -5.029849 -5.083405 -11.226030 -12.583631 -6.519190 -6.094008 50.851617 -4.315503 2457 2349 
2.160426 2.524221 1.396179 1.107504 -5.358969 -1.736705 -0.402743 0.310087 -3.478410 -4.016715 -10.285316 -12.812570 -9.713717 -4.673182 49.654204 -4.674293 2458 2350 
1.741706 0.817082 1.680061 -0.888357 -5.307510 2.280569 1.502014 -1.825567 -1.276379 -2.528426 -7.989925 -11.068004 -13.251079 -2.853476 42.617106 -3.649818 2459 2351 
1.609398 0.499971 1.014041 -2.192066 -4.971831 3.028802 1.185337 -0.173653 1.200616 0.923533 -3.992250 -8.698559 -16.185542 -1.437312 29.374960 -1.185446 2460 2352 
1.103462 0.290088 0.364417 -1.170489 -3.838970 1.519641 0.551892 1.179959 2.453052 2.886926 -0.115813 -4.328079 -12.993866 -0.339759 13.001706 -0.564167 2461 2353 
1.039299 -0.117117 1.393868 2.089343 -3.549740 2.275012 -1.109194 -2.021471 2.125645 2.386079 2.242098 0.881172 -7.458742 0.512710 0.069427 -0.758390 2462 2354 
0.395164 0.092912 0.296669 1.321272 -2.424139 2.127523 -1.070367 -0.739034 2.262449 2.709081 3.956925 4.652833 -3.134845 0.538887 -11.298404 0.313073 2463 2355 
0.378401 -0.469957 -0.510066 -0.153022 -0.660930 1.256899 -0.194980 0.353654 2.968985 3.724388 5.156174 6.690209 0.832684 1.811112 -23.313828 2.130276 2464 2356 
-0.243216 -1.320237 1.014172 2.644011 -0.795322 1.286143 -0.892206 -1.693345 4.605472 4.456036 6.793390 8.504618 3.209800 3.506042 -33.038143 1.962784 2465 2357 
-0.424874 -2.136381 3.313630 4.766236 -0.553913 -0.334873 -2.907648 -1.722177 6.221355 4.542119 8.069305 8.344440 4.574707 4.513706 -37.966156 1.700524 2466 2358 
-0.519858 -1.437177 3.790187 5.640706 -0.263910 0.613125 -4.016320 -3.806754 6.493022 5.418725 8.857059 5.776728 3.634407 4.942452 -40.330256 5.207861 2467 2359 
0.312659 0.023579 2.336189 2.424006 -1.686472 -0.364061 -2.375632 -0.670268 6.160658 6.404195 9.975177 6.213674 2.481385 3.201547 -41.216697 6.780062 2468 2360 
1.876998 2.079948 1.952187 -0.140944 -3.798293 -2.214023 -0.769248 1.013375 4.445243 3.387770 6.618996 5.522501 4.422269 3.571876 -34.098432 6.129776 2469 2361 
0.649051 2.934750 1.470172 -0.470813 -3.746093 -1.195669 0.155980 0.202622 3.217230 2.591237 0.462035 -2.862850 6.426703 3.870928 -22.289604 8.584321 2470 2362 
-0.743335 1.622281 -1.330134 -4.055603 -1.454032 0.547415 1.941611 3.471796 2.018516 1.537087 -1.987375 -7.641556 5.505126 4.200362 -8.790850 5.158689 2471 2363 
-0.393528 1.741820 -3.353012 -6.686392 -1.975709 1.938535 3.668982 5.059303 -1.227585 -0.476576 -2.997306 -6.201071 4.004808 2.498236 0.379707 4.019789 2472 2364 
0.459950 1.384246 -2.561133 -5.198334 -1.725715 0.580778 3.148376 3.911833 -2.455409 -2.091408 -7.838743 -5.798823 5.835308 0.207089 9.348448 2.793538 2473 2365 
-0.867444 0.068784 -1.627879 -2.761252 1.913450 0.554410 2.200487 0.519445 -6.147859 -7.918574 -12.284718 -5.883675 12.962384 1.240832 19.760360 -1.728750 2474 2366 
-1.696076 -0.682150 -1.206112 -2.462923 4.668384 1.156283 1.240709 -1.018116 -11.409736 -8.921592 -6.275243 0.262057 13.131227 -3.214389 21.795607 -5.367931 2475 2367 
-1.009037 -0.227489 -0.508441 -0.887882 2.932640 0.114484 1.133203 -1.547478 -10.587776 -7.171700 -0.647412 5.152622 4.590628 -6.717478 24.301239 -8.920121 2476 2368 
-0.326264 0.348220 0.880515 0.683933 -0.388864 -1.532623 0.844289 -0.509207 -8.007157 -6.714325 -0.688462 3.767952 -0.194862 -6.926037 27.061646 -8.298756 2477 2369 
0.748794 1.255168 0.826407 -0.847743 -2.583340 -1.532603 0.651903 1.481414 -6.968710 -8.214797 0.424673 5.139913 0.500431 -7.310925 26.512507 -10.083092 2478 2370 
1.482913 1.192016 0.039247 -2.416739 -4.078020 -0.597650 1.257663 3.120570 -5.234980 -8.144278 -3.748898 1.480231 2.586073 -2.838022 24.529163 -8.629289 2479 2371 
1.602018 -0.284196 0.569135 -2.182665 -2.417876 -1.085765 0.762535 3.036814 -1.409695 -3.773880 -4.816058 -1.476848 -0.947578 -0.226079 18.037589 -5.387451 2480 2372 
0.912447 -0.914276 1.869613 -0.071346 -0.804642 -0.580683 -0.342483 -0.068628 1.078262 -1.813630 -4.377174 -3.813699 -2.967082 0.647066 11.987504 -0.741248 2481 2373 
0.334621 -1.953365 2.245684 3.514317 -0.176371 0.161866 -1.929211 -2.197541 2.756337 0.288443 -6.217149 -6.469508 -0.757608 3.032719 6.220523 1.146242 2482 2374 
-1.256203 -3.301824 0.771884 4.288935 3.149582 1.056077 -1.661821 -3.046630 2.487489 1.782568 -2.796498 -3.115697 -1.244701 3.546503 -1.623026 0.963362 2483 2375 
-2.852087 -3.712370 -1.517441 2.406196 9.239176 2.657800 -1.736484 -4.484791 2.733304 3.945003 0.882511 0.272345 -3.961469 2.278323 -8.158214 2.008196 2484 2376 
-3.294896 -3.209791 -2.645063 3.437635 10.122193 2.624438 -1.633904 -5.400612 3.001721 5.851006 6.842204 6.941444 -4.957796 -0.839012 -15.917970 -0.921597 2485 2377 
-2.690920 -2.594849 -0.894268 4.707222 6.742839 1.214223 -1.858786 -4.625461 1.061000 5.783915 10.574965 9.290199 -1.883570 -2.505224 -22.614686 0.293402 2486 2378 
-1.887320 -1.259634 -1.119659 2.902419 5.856864 2.513695 -2.330266 -4.676100 1.646007 4.609483 8.975391 8.058134 2.942194 -2.090227 -23.937365 -0.203617 2487 2379 
-1.483733 -1.002333 -1.751822 0.509460 4.407491 2.725379 -0.902658 -2.501784 2.108755 2.917143 5.525676 4.662686 6.968840 -0.710958 -20.788743 -0.683399 2488 2380 
-1.047801 -1.642514 0.335066 2.013689 2.464105 1.544308 -1.498180 -2.168672 3.074158 2.562701 0.499953 -0.598328 5.473708 1.605326 -15.879552 3.262036 2489 2381 
-0.823727 -0.830646 0.768143 1.484784 0.992163 1.167489 -1.325399 -1.432807 2.715243 2.139429 -1.082661 -1.775784 1.504034 2.144003 -10.916287 5.272022 2490 2382 
0.697299 2.678727 0.174712 -1.180420 -2.837752 -1.706610 -0.784692 2.958735 1.993246 2.447073 -1.617809 -1.559393 -1.709235 1.438909 -5.383632 4.390841 2491 2383 
1.334759 5.393190 0.712396 1.002909 -7.018362 -3.454328 -0.689306 2.718743 2.180841 1.848646 -1.773206 -0.398335 -4.527850 1.754656 -1.711285 2.626532 2492 2384 
0.277593 2.570399 -0.661342 1.218641 -4.110460 -2.320016 0.740395 2.284792 0.875343 0.650721 -0.831469 -0.508957 -5.237259 1.527719 2.019666 1.504235 2493 2385 
-0.185636 -1.141764 -4.660170 -1.978259 2.402994 0.314708 2.259145 2.988983 -0.352779 -1.092488 0.120514 -0.521653 -5.268474 -0.542367 6.404342 1.252905 2494 2386 
-0.174711 -2.367467 -5.553352 -2.235046 4.859206 0.815921 2.607632 2.047818 -1.003671 -1.227967 0.296329 -1.243657 -4.455630 -1.428469 8.198931 0.864134 2495 2387 
0.061919 -1.785538 -4.401630 -2.054447 4.189816 -0.664533 2.705007 1.949407 -2.481572 -1.801030 -1.002453 -0.430950 -2.880265 -0.688131 10.290240 -1.005839 2496 2388 
1.471580 -1.551828 -2.382336 -7.355272 2.575375 -0.394987 4.072696 3.564773 -3.599847 -2.754638 -2.073256 -2.256013 -1.190259 -0.438972 11.699649 0.613337 2497 2389 
2.591376 -1.513744 0.048366 -10.074411 -1.225950 0.224505 4.783455 5.166403 -2.770454 -1.567831 -2.826474 -3.069743 -0.816747 -0.448610 10.649907 0.849952 2498 2390 
2.850837 1.277722 4.214781 -4.592568 -6.771697 -2.726415 2.456349 3.290991 -1.624817 -0.281913 0.694694 0.113378 -4.636578 -1.483658 9.673932 -2.455037 2499 2391 
2.367572 2.340734 8.734869 1.493181 -8.273388 -5.028063 -1.723471 0.088566 0.520252 2.408520 3.948976 -1.529554 -7.647392 -3.380079 7.467197 -1.787920 2500 2392 
0.824109 1.821105 7.554447 3.740310 -5.856395 -3.900978 -3.429953 -0.752645 1.411116 2.350431 3.366112 -0.735056 -7.361269 -3.135264 5.392597 -1.288667 2501 2393 
0.791659 2.654226 5.908215 3.814089 -5.274405 -2.570400 -4.121795 -1.201589 1.220074 2.243446 2.944607 0.129661 -7.560792 -2.282664 3.854621 -0.548953 2502 2394 
-0.000490 1.052166 0.545786 1.424051 -0.691824 1.531897 -2.153148 -1.708438 1.639881 2.459722 2.907712 1.716405 -6.382784 -2.405443 0.935639 -0.871133 2503 2395 
-1.392497 -1.564528 -5.625180 -4.161933 8.405396 5.724003 1.419919 -2.805181 3.041946 1.868592 0.706379 -1.738202 -4.219318 1.366242 0.069612 -1.095249 2504 2396 
-0.947075 -3.502928 -5.824493 -7.496223 10.966310 6.232286 3.295913 -2.723789 2.442805 0.310156 -3.681740 -11.477452 0.185290 7.355338 2.542254 2.323349 2505 2397 
-0.036186 -4.371086 -6.236058 -6.381655 7.929007 5.738717 4.039244 -0.681984 1.706691 1.335842 -1.237044 -6.708916 -0.790356 4.871013 -0.347992 1.170764 2506 2398 
1.135535 -3.654739 -4.794047 -2.131994 3.295729 4.062115 2.278145 -0.190744 2.078602 3.991176 2.255627 1.941938 -5.280218 -0.286689 -3.861432 -0.839006 2507 2399 
0.618350 -2.491350 -1.315941 4.474753 -2.255033 2.003524 -0.601868 -0.432436 0.888553 2.359022 0.842680 1.188235 -3.419590 0.256869 -2.992414 0.876646 2508 2400 
-0.418305 0.636039 1.218003 8.718367 -5.198178 -1.149427 -2.864114 -0.942386 0.315645 2.277079 1.637702 1.612031 -2.945376 -0.239045 -4.654436 1.996399 2509 2401 
0.111180 2.577372 1.113211 6.755968 -3.462364 -3.848887 -2.893594 -0.352885 -0.601230 0.462719 1.494302 3.859711 -1.996512 -1.096766 -3.715931 1.593707 2510 2402 
1.001706 2.100963 -0.230885 2.522642 -2.923228 -2.431555 -1.045069 1.005426 -0.035798 0.046732 0.933588 3.782736 -1.110937 -2.210497 -3.214881 1.809057 2511 2403 
0.937648 3.245768 1.348796 1.922695 -2.455397 -4.084086 -0.699529 -0.215896 -0.727824 -0.169482 0.641124 3.763051 1.344833 -2.460078 -3.632998 1.241374 2512 2404 
-1.089173 3.021754 3.160839 4.567832 0.452211 -5.933590 -2.754795 -1.425079 -1.784148 -1.642319 0.074445 3.036616 3.402130 -1.165005 -2.382524 0.460805 2513 2405 
-4.164821 1.033818 2.701481 6.154729 4.498865 -4.010645 -3.654205 -2.559222 -1.662734 -1.019028 0.626232 1.722678 1.742339 -1.063487 -1.184819 0.838820 2514 2406 
-4.958750 -0.140257 1.162987 4.995153 7.556595 -2.196517 -3.208341 -3.210870 -1.761379 -3.160060 -0.856294 0.382294 3.893752 0.409668 1.860916 -0.768897 2515 2407 
-2.738854 1.152514 2.202313 5.559606 4.243001 -4.510799 -2.708580 -3.199201 -2.858591 -4.150924 -1.372471 0.678463 7.994646 0.852625 0.464724 -1.608471 2516 2408 
-1.717382 2.861015 3.945665 5.752872 0.804597 -5.833986 -2.097818 -3.714964 -3.388390 -4.169766 -1.769424 1.300122 9.705641 1.460682 -1.443503 -1.695363 2517 2409 
-0.301528 2.790415 0.487742 0.263167 -3.036229 -1.559792 0.075937 1.280287 -0.277426 -3.358429 -4.329975 -2.686240 8.191330 3.223799 -0.958735 0.195677 2518 2410 
0.687802 1.743482 -1.379662 -3.447437 -4.423076 1.840922 1.736574 3.241394 1.930931 -1.123038 -3.191959 -4.143872 5.195599 2.555435 -3.494344 2.271248 2519 2411 
0.922514 -0.327924 -0.843058 -4.301869 -1.948256 3.203517 1.556230 1.738845 2.593213 -0.424231 0.197414 -1.184906 2.498748 1.484600 -5.717191 0.552352 2520 2412 
1.375409 -1.055366 -0.759082 -4.198327 -1.206032 2.386040 1.254825 2.202532 1.641930 0.178557 0.638224 0.780987 2.955995 1.008775 -6.520010 -0.684458 2521 2413 
0.583626 -2.469352 0.591498 -2.821427 -0.810016 3.450235 0.962441 0.512995 0.924927 -0.301171 0.309454 1.284517 3.103136 1.119286 -5.146000 -1.294150 2522 2414 
1.755787 -1.979372 1.319939 -3.614678 -4.513956 4.323317 1.460235 1.248727 1.199660 -1.527441 -0.459333 -1.900213 2.474866 2.492921 -2.222070 -0.058390 2523 2415 
2.335148 0.043332 2.247796 -3.080386 -7.883988 2.555949 1.469119 2.313030 2.278500 -0.622632 -0.403925 -2.965144 1.618700 1.677287 -1.467996 -0.114791 2524 2416 
2.656052 0.891013 2.785487 -0.880367 -9.943957 1.394388 0.890218 2.207165 2.146575 0.447637 0.064096 1.051509 -1.774889 -0.163056 -0.298797 -1.473076 2525 2417 
2.120579 2.074081 4.099311 1.703941 -10.169886 1.680860 -1.465594 -0.043293 1.198036 1.536203 -0.187097 1.286243 -4.083155 -0.980614 1.657953 -0.427570 2526 2418 
2.269637 2.409957 4.043727 0.552686 -7.619363 1.296603 -1.630594 -1.322654 0.580945 1.761632 0.901276 0.232939 -4.116967 -1.935690 2.357019 0.218847 2527 2419 
4.185688 1.869632 1.375265 -4.861955 -4.516706 -0.101607 0.796837 1.252847 -1.336697 1.430557 1.473081 1.110853 -3.669430 -2.215416 2.611033 0.596019 2528 2420 
1.397373 -0.364245 -2.802942 -6.329611 2.500316 1.957301 1.485316 2.156494 -1.439501 0.673433 1.687827 1.788669 -2.141014 -3.299832 3.500271 -0.769854 2529 2421 
-0.925302 -1.608357 -4.646384 -2.734875 5.734090 3.400295 0.699456 0.081077 -2.472298 -2.163116 0.045598 2.171643 0.812578 -3.109595 6.609666 -1.894476 2530 2422 
-0.744249 -1.096338 -2.769917 2.589795 4.647786 -0.360603 -0.713707 -1.552767 -2.731698 -1.545894 -4.606186 -1.063329 3.487529 -0.780901 7.213091 0.027388 2531 2423 
-0.655291 0.390691 -1.703873 3.067110 3.264586 -4.059237 0.147295 -0.451282 -0.793933 -1.918507 -7.918333 -3.469167 6.403290 1.391994 6.394639 -0.089983 2532 2424 
0.848685 0.754533 -0.453545 0.871364 -0.852390 -2.628437 1.420154 0.039636 -0.722931 -3.294752 -6.311824 -1.763964 6.161318 1.560150 6.263644 -1.891640 2533 2425 
0.168960 -0.462693 0.377704 1.493609 -2.002697 -0.255758 1.316116 -0.635242 -1.280039 -1.367786 -2.313595 0.988190 1.165948 -0.580637 3.533662 -0.145743 2534 2426 
-1.600431 -0.263135 -0.577435 0.744073 1.187669 0.028013 1.035374 -0.554127 -0.269099 -0.755128 -0.444574 0.699413 -2.046347 -0.662397 1.737025 1.741107 2535 2427 
-1.803788 -0.400936 -1.522676 0.802170 3.316210 0.019156 0.715241 -1.125378 0.569392 -0.919015 0.170248 -0.411598 -0.227601 -0.483662 0.982659 0.319577 2536 2428 
